Time (s),Interpolated Values_Waist Acceleration,Interpolated Values_Chest Acceleration,Interpolated Values_Left Ankle Acceleration,Interpolated Values_right Ankle Acceleration,Interpolated_Left Leg,Interpolated_Left Leg.1,Interpolated_Left Leg.2,Interpolated_Left Leg.3,Interpolated_Left Leg.4,Interpolated_Left Leg.5,Interpolated_Left Leg.6,Interpolated_Left Leg.7,Interpolated_Right Leg,Interpolated_Right Leg.1,Interpolated_Right Leg.2,Interpolated_Right Leg.3,Interpolated_Right Leg.4,Interpolated_Right Leg.5,Interpolated_Right Leg.6,Interpolated_Right Leg.7,Interpolated_gaussian_EMG_magnitude_left,Interpolated_gaussian_EMG_magnitude_right,Interpolated Values_left wrist Acceleration,Interpolated Values_right wrist Acceleration,Interpolated Values_left wrist electrodermal,Interpolated Values_right wrist electrodermal,Interpolated Values_left wrist Tempreture,Interpolated Values_right wrist Tempreture,Interpolated Values_VO2,Interpolated Values_Breath Frequency,Interpolated Values_Minute Ventilation,Interpolated Values_SpO2,Interpolated Values_Heart Rate,Interpolated Values_Enregy expendiures,Activity Code
360.0,9.881434087414256,9.907992655194729,10.37697318085117,10.556382804024029,0.1662441432887796,0.0340205837978591,0.0222256498547732,0.0810919472463605,0.0756694126762669,0.0832806121094579,0.0711480787036923,0.043404725045065,0.1116205397823863,0.0267716993255815,0.0341112375835764,0.1191617413761232,0.0639227314503091,0.0740507867844307,0.1013954755591901,0.0577384453653172,0.2368346659361337,0.2180840937970278,9.770370230396308,9.770370230396308,0.1541508652751597,0.1231303131027792,32.572005500604966,33.118417988753194,6.595555345620251,18.0,12.0,100.0,79.0,3.794864516984302,1
361.0,9.893782940601213,9.935136662254218,10.8256917923056,10.890038037827807,0.1868864881707727,0.038365337322175,0.0278256094274472,0.0943396352855953,0.0743114704827825,0.0904329277505196,0.0756380361995052,0.0537341618355223,0.1239835276533223,0.0339345816829149,0.0375322701070934,0.1165990742995867,0.061342844507129,0.0811338389856061,0.0992462592725716,0.0751983875193219,0.2571909468063627,0.2339384928507201,9.787783570116371,9.787783570116371,0.154169688830579,0.1231688820449177,32.57145469807328,33.117455839498646,6.595555345620251,18.0,12.0,100.0,79.0,3.794864516984302,1
362.0,9.906330872857636,9.967682825915976,11.345032235641415,11.291268928738916,0.2093715572474505,0.043155963717428,0.0335410569736299,0.0966649993103895,0.0705559586847833,0.0925188590095377,0.0790572126745424,0.0627233400375107,0.1305984699042097,0.0416794575469415,0.044875078142624,0.1129670402675126,0.0577608315473944,0.085015238619577,0.0988357598378735,0.08896132666749,0.2750775769988307,0.2449583661265814,9.793522233903724,9.793522233903724,0.1541843615911484,0.123205464476422,32.57082897712154,33.116544107427565,10.765077854395676,21.0,19.0,100.0,87.0,3.794864516984302,1
363.0,9.917097748412576,9.999778438542911,11.830694031423988,11.73517771377632,0.2256304544645541,0.0487852832112134,0.0390781284440796,0.0908319126645642,0.0676887594407811,0.0945472593767299,0.0816938252886418,0.0696027803743027,0.1306148139381508,0.0480614110685258,0.0523815153458485,0.1135604528718758,0.0542506518938086,0.0874787252623859,0.1040429597128759,0.0969378566683712,0.2883675009472087,0.2518866317266784,9.787375519100337,9.787375519100337,0.1542011571288396,0.1232454263259455,32.5702204950186,33.11570339909881,10.765077854395676,21.0,19.0,100.0,87.0,3.794864516984302,1
364.0,9.92310386705801,10.024502428496156,12.166507411712384,12.132302247881016,0.2314790315343992,0.0535601905440368,0.0431821665651745,0.0817451109009277,0.0667725589436154,0.0988073091892407,0.0834948156903917,0.0746610406727896,0.124993519947332,0.0529672250367668,0.0569185450269909,0.1167919520511646,0.0508655990752297,0.089065145980153,0.1111193619432064,0.0986059007203281,0.2964002925112454,0.2550631805812367,9.774731394217902,9.774731394217902,0.1542124632728692,0.123284649943389,32.5696455163161,33.11489003456131,10.765077854395676,21.0,19.0,100.0,87.0,3.794864516984302,1
365.0,9.923267709289782,10.038952312499278,12.311567333734295,12.384207871507092,0.2298686486942302,0.0555537961483045,0.0450152709881665,0.0736844157121409,0.0668041730341678,0.1035188753946755,0.0836336407505912,0.0794410194479319,0.1170178250472594,0.0568478827923095,0.0580681565442753,0.1181435260599317,0.0476172009937407,0.0900427375157651,0.1152707610350499,0.0963403621678444,0.3000270195381185,0.2547135774586522,9.764255572264425,9.764255572264425,0.1542209830482,0.1233229863975805,32.56904437691162,33.1140979820207,10.776065748220653,21.0,19.0,100.0,88.0,3.794864516984302,1
366.0,9.920318217414486,10.046000296141488,12.333102376381122,12.466207601680027,0.226943850706292,0.0549103849938123,0.0454585167883198,0.0686222812679089,0.0667105748575742,0.1057397345925805,0.0824623549458823,0.0844231848264344,0.1103864289210396,0.0590583940629854,0.0574053117963503,0.1143681973786189,0.0446664291698884,0.0904341031319316,0.1146718873227619,0.094329211742873,0.3009338618763202,0.2516216244364652,9.75961795629681,9.75961795629681,0.1542325385956012,0.1233561661588703,32.56849580381807,33.11335786625597,10.776065748220653,21.0,19.0,100.0,88.0,3.794864516984302,1
367.0,9.918228622925682,10.050025427564716,12.322044348441652,12.439402681001464,0.2255820841376705,0.0533501328165891,0.0459074432297794,0.0665641269308483,0.0659683799224561,0.1051165839610618,0.0815298048201959,0.0878304494497375,0.1068445631965705,0.0586153551810574,0.0562963831904363,0.1069498772371792,0.0423982566972582,0.0905991666466544,0.110359532149251,0.0942435176327581,0.3007790084057343,0.2472801213429267,9.757564599766804,9.757564599766804,0.1542438444712783,0.1233901603063061,32.56793454244819,33.11258649879043,10.798157782630769,21.0,19.0,100.0,88.0,3.794864516984302,1
368.0,9.918308690702071,10.052775767861563,12.319565892643864,12.38574259745324,0.2260121680702766,0.0521314374484807,0.0465820136083856,0.0668742487077922,0.0648638670400917,0.1038646303541299,0.0815591238577133,0.087997212347763,0.1064230713964223,0.0561313382887605,0.0551789934081515,0.1002033808082497,0.0409057422361468,0.0913423350614721,0.1052823939504652,0.094858852464114,0.3006743000603823,0.2434007544681919,9.754535108676954,9.754535108676954,0.1542523815383888,0.1234230306415373,32.5674152006244,33.11179596696106,10.798157782630769,21.0,19.0,100.0,88.0,3.794864516984302,1
369.0,9.918983694766917,10.053760586072146,12.331360850679086,12.343587863561249,0.2273858726785255,0.0514780501194637,0.0469284940983545,0.0684938400431611,0.0644346145010617,0.1033699730908758,0.0822720093713257,0.0858308436946578,0.1084071031583007,0.0532930996938172,0.0545208021017435,0.0955591629419621,0.0395274876052813,0.0929223377828458,0.1027437618742084,0.0951434893635476,0.3012284553194899,0.2412218607980292,9.751570810883525,9.751570810883525,0.1542583894046011,0.1234564543909026,32.56686004913032,33.11114346792071,10.798157782630769,21.0,19.0,100.0,88.0,3.794864516984302,1
370.0,9.918805770538444,10.05237625402517,12.356003161501487,12.310434871539057,0.2276692660495689,0.0514889125340656,0.0468641609215484,0.0706017134428774,0.0653271908540553,0.1029140268216418,0.0837150224134744,0.0839497712605173,0.1115058683610367,0.0509148263522477,0.0550068441918164,0.09157463206098,0.0378225993206041,0.0949390224599995,0.1046324449507521,0.0953488705880074,0.302919591028333,0.2410735422251171,9.75197690709236,9.75197690709236,0.1542598558439346,0.1234889334492229,32.566304475493816,33.1105609965931,10.831327772903308,21.0,18.0,100.0,88.0,3.794864516984302,1
371.0,9.91809624160218,10.04944928530062,12.384359141090265,12.292078927850506,0.2279259045942997,0.0525508891536914,0.046848210386894,0.0728790273364381,0.0667819764228833,0.1016111634573478,0.0861605384992427,0.083979673117916,0.1143667956547292,0.0490366576878027,0.0566514915933715,0.0883501769808986,0.0363447736777642,0.0965452219990306,0.1103995645335886,0.0960316583944105,0.3062479396223085,0.2423982006541193,9.756189902203143,9.756189902203143,0.1542628985864909,0.1235171598086517,32.5657080524547,33.110038463975656,10.831327772903308,21.0,18.0,100.0,88.0,3.794864516984302,1
372.0,9.917549035505496,10.04701720902333,12.398492656486765,12.311819548131783,0.2335638294091248,0.0547090421630137,0.047420046179651,0.0743069174403754,0.0674822895271618,0.0998639597333347,0.0888755354804877,0.0856636115216858,0.116327362700819,0.0479324156471503,0.0586230460205403,0.0873469046035163,0.0358182282344602,0.0962688395027602,0.1166609993030632,0.0968001847064231,0.3113043748850051,0.2442265166784794,9.761587579179697,9.761587579179697,0.1542616524848748,0.1235479685799144,32.56515663484932,33.10960826173089,10.831327772903308,21.0,18.0,100.0,88.0,3.794864516984302,1
373.0,9.916996283044682,10.046391025734131,12.385744893220572,12.361947401241842,0.2457176079913937,0.0571550543270894,0.0489089910191141,0.0732604759185805,0.0673436929505617,0.0989763025212402,0.0903643962175004,0.0880424757196846,0.1176514585326529,0.0477684050833922,0.0599173097247149,0.0886240258675413,0.0364970960053883,0.0934412406961176,0.1189954571714306,0.0961688476095801,0.3171147688564421,0.2458898221244526,9.76707461527122,9.76707461527122,0.1542574039623134,0.123575660994796,32.56456661519608,33.10920447556649,10.87499527906141,21.0,18.0,100.0,89.0,3.794864516984302,1
374.0,9.91622377086066,10.047770075122532,12.3637507440985,12.40176157746962,0.2561720594467003,0.0589245472491933,0.0511287239620741,0.0698226585185805,0.067509966126577,0.0999328565350947,0.0903478635226214,0.0902345259435518,0.1194024007041364,0.0482290920958974,0.0603335526900035,0.0920206088588789,0.0384538527667589,0.0896541589272489,0.1164902944115532,0.0936497026604626,0.3218152730134656,0.2474840604123018,9.773935938330144,9.773935938330144,0.154254626910068,0.1236024842936964,32.563999883726616,33.108694316267815,10.87499527906141,21.0,18.0,100.0,89.0,3.794864516984302,1
375.0,9.915490501283474,10.05070359275972,12.372407189452789,12.42346720532085,0.2567167122240828,0.0599706707805052,0.0533263894752993,0.0665597898885002,0.0685849523497247,0.1024262407535367,0.0899422231985423,0.0915725414915133,0.1224697376832122,0.0488777387827732,0.0606726621431188,0.09828916374143,0.0413617205749569,0.086846569618813,0.1129791485784345,0.0911269616134327,0.3238297588459625,0.2495459294951822,9.782778593392123,9.782778593392123,0.154247019226103,0.1236294137156288,32.56340374817412,33.10824247159476,10.87499527906141,21.0,18.0,100.0,89.0,3.794864516984302,1
376.0,9.91482406857372,10.053186370487571,12.416155093547196,12.457369674761416,0.2492884391746244,0.0609860856403087,0.0545862886850143,0.065485059556999,0.0699323058103485,0.1051335352098288,0.0895804647424552,0.0922474074449893,0.126142867712834,0.0491809241605606,0.0614268551776461,0.1062185295028314,0.0439866369044601,0.0849673436244495,0.1124239345183606,0.0909341867871306,0.3229406687345112,0.2522100327342771,9.792934577288888,9.792934577288888,0.1542403977817084,0.1236526082556612,32.56281455313197,33.10787922680418,10.927633008659493,21.0,18.0,100.0,89.0,3.794864516984302,1
377.0,9.914128472731788,10.052781342713647,12.4479641789992,12.507382040722549,0.2413305101301658,0.0624514576287669,0.0546316831586295,0.0653162924073265,0.070975308462943,0.1068093271810839,0.0886351803619921,0.0930462620224147,0.1285818586949146,0.0486465553382529,0.06201421644347,0.1123021603082056,0.0451850884194857,0.0830886075704603,0.1146277789348382,0.09332706918137,0.3201774269299538,0.2548158277351176,9.80235135324131,9.80235135324131,0.1542290364225193,0.1236706386558921,32.56229661639632,33.107517282187644,10.927633008659493,21.0,18.0,100.0,89.0,3.794864516984302,1
378.0,9.913743733505957,10.04952635665777,12.433535310297058,12.543035257803531,0.2359939097795291,0.0643660978045417,0.0540814958818069,0.0637280071238756,0.0720710872976907,0.1069261979818021,0.0871672476697729,0.0939124697419889,0.1287510747528172,0.0475548330071552,0.0618699672231455,0.1149302976712675,0.0453232895259292,0.0813756767745548,0.1162398572556278,0.0961328490796091,0.3168646897961912,0.2564435734989532,9.806366663190328,9.806366663190328,0.1542179013633533,0.1236922375246877,32.561713966570025,33.10706698750279,10.927633008659493,21.0,18.0,100.0,89.0,3.794864516984302,1
379.0,9.91386823835708,10.045418035376134,12.39452747327856,12.552580536936524,0.2324533909682107,0.0664375447702496,0.0537364162109141,0.0609783805243041,0.073393626437451,0.1056979858570557,0.085994391147365,0.0941224421740292,0.1265562667720019,0.0468190173984923,0.0613219784940587,0.1154713130639342,0.0455133734354894,0.0805352799353297,0.1156920984811123,0.0970614050667392,0.3139194315713632,0.2567601956992324,9.800746470789496,9.800746470789496,0.1542049630336204,0.1237100013428337,32.56111341657628,33.10668406908467,10.986569792722335,20.0,18.0,100.0,90.0,3.794864516984302,1
380.0,9.914281923862584,10.04151984196942,12.3676550230461,12.55354123846661,0.2303200695598142,0.0681457176017936,0.0541483890901624,0.0589270315416454,0.0741395926653836,0.1036755661101121,0.0850573049143423,0.0937064505807915,0.1225028070679084,0.0467468561505696,0.0608724453367723,0.1146730531340653,0.0460368574434411,0.0805702375375393,0.1153408413864161,0.0965779658868454,0.3117957620127222,0.2562784079410473,9.78715758490303,9.78715758490303,0.1541918347753616,0.1237278791072239,32.5605779595687,33.10639602919898,10.986569792722335,20.0,18.0,100.0,90.0,3.794864516984302,1
381.0,9.914874678208248,10.03727175965496,12.35233616273605,12.553116781924697,0.2295338919946541,0.0690112617539717,0.0553565721476839,0.0584786366249078,0.0738923744193499,0.1016166263823617,0.0840531944336377,0.0933799091059125,0.1188791717535729,0.0468250671535477,0.0604542753557179,0.1117784846619414,0.0464659635675377,0.0813279157161386,0.1176433540038491,0.0971257980253793,0.3106579555400598,0.2558268715175691,9.772268515276217,9.772268515276217,0.1541740552153553,0.1237437263001204,32.56003599124165,33.10614965183245,10.986569792722335,20.0,18.0,100.0,90.0,3.794864516984302,1
382.0,9.915373894780418,10.032453074850388,12.327624033619411,12.53614488396843,0.2299190292992572,0.0688265446124934,0.0563205903456828,0.0597575075810236,0.0738400586461235,0.1004321361968578,0.0843163452976546,0.0934499865786402,0.1184048671026862,0.046696715550289,0.0598477134804712,0.1070145115174403,0.0462238774849167,0.0833176780994119,0.1218023327810175,0.0997771539142552,0.3104021188961472,0.2557637791952019,9.761363232291204,9.761363232291204,0.1541552921218017,0.1237560280621378,32.55950055357484,33.105957501598986,11.04810564958452,20.0,18.0,100.0,91.0,3.794864516984302,1
383.0,9.915342030155388,10.028998347069509,12.296329267474809,12.490467251816716,0.2306055101392623,0.0676018355870488,0.0558200790630022,0.0622072155779304,0.0755071920988144,0.1001706908901445,0.0872213511029313,0.0935553771160706,0.1204272794749741,0.046448988806158,0.0591499893535814,0.1014465140570714,0.0447836112909436,0.0865670173628011,0.1250957909223023,0.1032958502807574,0.3106392715669087,0.2556265666821314,9.756270975840758,9.756270975840758,0.1541383231852503,0.1237691217787254,32.558879108097464,33.105831903000166,11.04810564958452,20.0,18.0,100.0,91.0,3.794864516984302,1
384.0,9.914916525275505,10.029437289665276,12.27835089544631,12.431283028488362,0.2295048819167388,0.0657443261974828,0.0542778223445488,0.0643587384457117,0.0783610887476624,0.0998860934344336,0.0915507943320314,0.0933079382435582,0.1217091392352406,0.0462454279367421,0.0586049756936564,0.0959645844614492,0.0425674246344471,0.0895318386145438,0.1258208113760317,0.105516373023585,0.3109148538317273,0.2544922402244413,9.757865013857645,9.757865013857645,0.1541185026882239,0.1237821819856077,32.55834474183277,33.105678418330754,11.04810564958452,20.0,18.0,100.0,91.0,3.794864516984302,1
385.0,9.914610451747102,10.03360500106252,12.27857360405464,12.392422070819087,0.2272024894544579,0.0638629708209679,0.0531155642717371,0.0654012968735929,0.0796445863188803,0.099106405440673,0.0950260567245569,0.0927644539508781,0.1208283738554113,0.0462021091745184,0.0582233014844577,0.091605060190859,0.0409941600447468,0.0906154654845166,0.1240067467792261,0.1047958646270372,0.3110466887829589,0.2516877999935666,9.765061570048866,9.765061570048866,0.1541003999493171,0.1237932821219041,32.557798784997416,33.10556125969992,11.107953720126307,20.0,18.0,100.0,91.0,3.794864516984302,1
386.0,9.91477888500296,10.039188365511016,12.28915595343783,12.386895393351928,0.2276459990957334,0.0622213610541972,0.0527268981322606,0.065478327042542,0.0776983108073435,0.0981760742113426,0.0967293151119189,0.0921249021500316,0.1185732183056349,0.0462912618434342,0.0577032337523118,0.0888782720526235,0.0408763344947392,0.0896206823732387,0.1201272013161118,0.1013890675424254,0.3111357703365,0.2472893399854826,9.772721677081334,9.772721677081334,0.1540737261708689,0.1238025091203021,32.55726772354024,33.10556290153176,11.107953720126307,20.0,18.0,100.0,91.0,3.794864516984302,1
387.0,9.915513627910324,10.044339272333437,12.304291661785582,12.39944188848559,0.2317231133243064,0.0609460258194633,0.0525174837992495,0.0646126972592113,0.0747165707211806,0.0976291794077362,0.0963925036741333,0.0913318972831809,0.11559159530847,0.0462761415904168,0.0570440006022913,0.0874212452365904,0.0418787885682809,0.0870150124095839,0.1145051450468545,0.0974532232489887,0.3112345269466511,0.2421406869402732,9.774572447298466,9.774572447298466,0.1540476195117206,0.1238130101514119,32.5567057937044,33.10562241919433,11.107953720126307,20.0,18.0,100.0,91.0,3.794864516984302,1
388.0,9.916515755790098,10.047744934510842,12.318154100908703,12.409687243725344,0.2348806746409593,0.0603568706557158,0.0521569432603866,0.0631408596899517,0.0744076317755729,0.0979954241496034,0.0937116560796335,0.0904238812595012,0.1126620404788933,0.0459263513678372,0.0568988710137814,0.0865829929333565,0.043556386843346,0.0837898688853195,0.1078219366538724,0.0947446188705238,0.3112201440236877,0.2375154119469691,9.768438766880006,9.768438766880006,0.15401968051215,0.1238231367904291,32.55612644803237,33.105652295192655,11.16191608549858,20.0,19.0,100.0,92.0,3.794864516984302,1
389.0,9.917528972315974,10.048376304386183,12.332028512619424,12.400713771146366,0.2331339999899192,0.0605969936063792,0.0517909818132515,0.0623484915980145,0.0775216528993646,0.0996106731978257,0.0897622786204413,0.0898695245696369,0.1115839272825058,0.0453142630911522,0.0577062950378675,0.0861655202431476,0.0455284765295645,0.0819848116809928,0.1018633170365675,0.0932640280499807,0.311086088040301,0.2345807392505383,9.75885356781702,9.75885356781702,0.1539937600666379,0.1238387762237247,32.55567681532448,33.105645501957355,11.16191608549858,20.0,19.0,100.0,92.0,3.794864516984302,1
390.0,9.9187483421681,10.04631539461802,12.356764494978352,12.37039581694551,0.228971187395287,0.061156102108807,0.0515474266824642,0.0640167497634127,0.0812408555641128,0.1023744394914054,0.0869349991195016,0.089952338629843,0.1133500124193032,0.0449057797255173,0.0591274126622867,0.0871377257316479,0.0466895936967768,0.0825567020102724,0.0986716217385369,0.0926039762383356,0.3110562298705538,0.2338537117967619,9.75363548006356,9.75363548006356,0.153963484735605,0.1238554420239725,32.55533300833122,33.10564558741657,11.16191608549858,20.0,19.0,100.0,92.0,3.794864516984302,1
391.0,9.920032147610389,10.042596582001158,12.38978514639589,12.33677287087537,0.2279454852644896,0.0611884246989856,0.051226337378854,0.0688944447100022,0.0827242983053069,0.1054609151160993,0.0867072861437286,0.0903259998106237,0.1162360218422463,0.0452301032540423,0.0607620788857604,0.090114858139115,0.0457461129484007,0.0834907401790979,0.0987200138716371,0.0928265163249128,0.3111117633738822,0.2349767696542818,9.756221850247512,9.756221850247512,0.153934468370705,0.1238728030857423,32.55486975787652,33.10565302689429,11.206623006065998,20.0,19.0,100.0,92.0,3.794864516984302,1
392.0,9.920462059528466,10.038406926759752,12.413044380467388,12.320823195268355,0.2292271218995067,0.060769412022964,0.0507246523751903,0.0744167334681232,0.081629909988052,0.107324532023341,0.0886700600223489,0.0909091544327446,0.1174757018013441,0.0462783059092043,0.0623062616187952,0.0940134753405086,0.0430381216804623,0.0827189516509376,0.1016660641271759,0.0935407818112451,0.3106118580129463,0.2369952594312629,9.761819417891676,9.761819417891676,0.1539033550136663,0.1238875967566668,32.55429267962829,33.10566829287988,11.206623006065998,20.0,19.0,100.0,92.0,3.794864516984302,1
393.0,9.919308159887857,10.035258558471094,12.41869093087981,12.33792555135238,0.2257670742487396,0.0612235496042552,0.0506980444931641,0.0757203034465302,0.0793242594298091,0.1064866709504037,0.0915817005129815,0.0925408519072911,0.116618456779382,0.0473444398612397,0.0629065302302381,0.0976499265839059,0.0406060469010417,0.0811008034639894,0.1067907032201715,0.093732387878766,0.3088570493094542,0.2388833783359462,9.762799874174592,9.762799874174592,0.1538718652656393,0.123904020632876,32.553668437429764,33.105737563205324,11.206623006065998,20.0,19.0,100.0,92.0,3.794864516984302,1
394.0,9.917164456254868,10.034410584177063,12.411889591797625,12.388014170046237,0.2165110731918292,0.0631970075042823,0.0518125388911457,0.0712231372534157,0.0773877381975489,0.1027783043854482,0.0941479813376773,0.0957595862594661,0.1156708722925198,0.0477138176720404,0.062048839171351,0.100057536242403,0.0400643553367525,0.0803928238918728,0.1109107594661043,0.0929121501590552,0.30607983851103,0.239939107570878,9.75792272779246,9.75792272779246,0.1538428974320811,0.1239224172383422,32.553086070977955,33.10582391443933,11.240142132828694,20.0,19.0,100.0,92.0,3.794864516984302,1
395.0,9.91588675499326,10.03500862233157,12.392925848703284,12.440844819920692,0.2098240264998079,0.0653748996513998,0.0534462654193031,0.0648539670104479,0.0765937605355328,0.0981700194380342,0.0949526715433466,0.0993732933762123,0.1160443461955702,0.0473296362837135,0.0607520727474407,0.1003515993634921,0.0413785508590341,0.0805668623137801,0.110221831151583,0.0917057706211024,0.3034644612021783,0.2399418813812025,9.753262246083038,9.753262246083038,0.1538120315335211,0.1239391035562998,32.55250596596947,33.105922912702844,11.240142132828694,20.0,19.0,100.0,92.0,3.794864516984302,1
396.0,9.91663816274358,10.035271887501905,12.363003203745432,12.467543800425345,0.211591647987494,0.0662764361796146,0.0543768797801031,0.0609392459768618,0.0764689460924449,0.0950792936577917,0.0933251138861021,0.1013023858680417,0.1171613731932234,0.0467008806249289,0.0603351152807761,0.0995891437515971,0.0434200093308426,0.0803538339322685,0.105315581382137,0.09132675048958,0.3019684634758819,0.2390956734618004,9.753743799155686,9.753743799155686,0.1537857784890349,0.1239551360276366,32.551996750576,33.106038627008104,11.240142132828694,20.0,19.0,100.0,92.0,3.794864516984302,1
397.0,9.91843966012278,10.035144586828292,12.339896974420864,12.475333398813332,0.2186467912445119,0.0660404384266897,0.0543403048608074,0.0593534139768413,0.0763643123450665,0.0934081335285615,0.0900114127475532,0.1007828591737958,0.1178705118767087,0.046316114199441,0.0609563214764604,0.0993945153538551,0.0448402015088115,0.0789956926260456,0.100283655155139,0.0925044749319259,0.3013199519372591,0.2377630839496809,9.75782518750134,9.75782518750134,0.1537549928672636,0.1239690214134475,32.55150577789115,33.10618920555407,11.262300485806602,20.0,19.0,100.0,93.0,3.794864516984302,1
398.0,9.91980518065935,10.035302832235706,12.3437868207872,12.480077218965109,0.2245334141796333,0.0654454754033783,0.0539032469661309,0.0574193043827312,0.0761815806083308,0.0915328881919823,0.0862061927876974,0.0987094485975173,0.1174274923179649,0.0460024088115108,0.0619196968834129,0.099230466774617,0.0451500879798893,0.0769100161811418,0.0975178783644693,0.0946573320924335,0.3003125459260263,0.236179546255351,9.76064579842501,9.76064579842501,0.1537254645552701,0.1239838223089415,32.55107616865927,33.10632373440573,11.262300485806602,20.0,19.0,100.0,93.0,3.794864516984302,1
399.0,9.92057033120284,10.036066212830672,12.378840685245752,12.477554085838175,0.2250533611703394,0.064438492026167,0.0535553087853305,0.0544669300435494,0.0755297202986442,0.0894973379507877,0.0831109368047722,0.0960547947602311,0.1157254818024711,0.0451686391282992,0.0622651452638005,0.0977188914606397,0.0449494672356436,0.075165661428156,0.096693034336162,0.0962915293128796,0.2979756868541682,0.234463904696229,9.759804856458652,9.759804856458652,0.1536922397381073,0.1239973845252931,32.550680140450844,33.106516502509685,11.262300485806602,20.0,19.0,100.0,93.0,3.794864516984302,1
400.0,9.921189093506914,10.03846143792889,12.434524728980286,12.458119185988906,0.2207103925562822,0.062415998783348,0.053326783608141,0.0521460829827823,0.0738068360445787,0.0885355027915717,0.0816456711934752,0.093007466687296,0.1138498485668729,0.0438060504921846,0.0614049513420274,0.0945795485516525,0.0445003972144778,0.0746784418953084,0.097134635318864,0.0964580573615098,0.2943992860997672,0.2328294267410502,9.757065699349882,9.757065699349882,0.1536604296889611,0.1240103676677123,32.55028903510148,33.106588798641454,11.274642849870611,20.0,19.0,100.0,93.0,3.794864516984302,1
401.0,9.921724468775476,10.043156651985509,12.487035507990589,12.424136920234393,0.2159796316972698,0.0593265455256912,0.052648417167495,0.0516027952800567,0.0713317228837188,0.0888576142997239,0.0815600859584076,0.089499052116321,0.1136125948173514,0.0424659587617367,0.0598862152491067,0.0908330138406173,0.0433117748317747,0.0758332436441608,0.098574776701425,0.0951117242701279,0.290581500336894,0.2316184690951468,9.754719475725658,9.754719475725658,0.1536248898066529,0.1240253648742218,32.54975819057785,33.10659170735965,11.274642849870611,20.0,19.0,100.0,93.0,3.794864516984302,1
402.0,9.921921490925742,10.048116317463894,12.50459475380325,12.3859791513292,0.2139021877733527,0.0560725284194761,0.0508633415756829,0.052725532087512,0.0690989538939285,0.0897948384866514,0.0821528993230927,0.0859155727145458,0.1158666079065665,0.0413569866972324,0.0587969093719345,0.088382727772217,0.0414823068155801,0.0785529564009562,0.1003210533921962,0.0922852809408725,0.2876438332973347,0.2309992935657776,9.75384157047347,9.75384157047347,0.1535925939187449,0.1240392381894395,32.549261789746964,33.10669008049314,11.274642849870611,20.0,19.0,100.0,93.0,3.794864516984302,1
403.0,9.921441897733931,10.049887780215585,12.473142002089917,12.350228067575806,0.2137435308995374,0.053945930877744,0.0482650889689105,0.0553698447671016,0.0674739211405805,0.0908394404250236,0.0836073915385356,0.0829192143364223,0.1191552576259063,0.0403833794224993,0.0583877022268939,0.0879597426646167,0.0397788626921311,0.0821326209927607,0.1015547684523674,0.088798254106853,0.2861518103565257,0.2306530463426747,9.75645219717936,9.75645219717936,0.1535557688368219,0.1240525518839807,32.54867629548982,33.10687977089859,11.280048257961724,20.0,19.0,100.0,93.0,3.794864516984302,1
404.0,9.920349993244416,10.047735211523394,12.417781116374536,12.324574675303138,0.2146423400747994,0.053882935513405,0.0462580812853119,0.0589764035518146,0.0661491597300885,0.0917016242077447,0.0858342113680494,0.080516166430718,0.1205377246273052,0.0396171362997509,0.0580915254755298,0.0880094935263809,0.0385367819473785,0.0848702980500694,0.1020421248385864,0.086857521844558,0.2859228448222044,0.2298592192276332,9.764538102336177,9.764538102336177,0.1535262385383766,0.1240620422683312,32.54813851832869,33.107032648834874,11.280048257961724,20.0,19.0,100.0,93.0,3.794864516984302,1
405.0,9.919216257020109,10.044497786815512,12.378487489382684,12.327852760301653,0.2165090033181509,0.0559146471804843,0.0461987516906298,0.0621131053659156,0.0652507714477906,0.0921354863687497,0.0870410557817555,0.0779649129853974,0.1186106706593332,0.039122364040755,0.0575822422115738,0.08719742654462,0.0378538071822958,0.0845823194303913,0.1014961665485656,0.0875598730706691,0.2862373955308916,0.2279980376725164,9.776463170389624,9.776463170389624,0.1534954107462534,0.1240775683265057,32.547679722290354,33.10723292957879,11.280048257961724,20.0,19.0,100.0,93.0,3.794864516984302,1
406.0,9.91850805102245,10.042740136363552,12.369241791068202,12.367115736988094,0.2175152837332399,0.0586492313083067,0.0479954511082224,0.0650879593556136,0.0650616203977552,0.0919586819560473,0.0858260715861361,0.0750842676420447,0.1147307393475043,0.039011899788471,0.0572407290210956,0.0857539348706042,0.0381769539219118,0.0803493735241049,0.0995139944127248,0.0890392129141927,0.2862469415173128,0.2250785269668706,9.787150251574198,9.787150251574198,0.153462021019052,0.124095052380227,32.54720744531511,33.1073734113287,11.28211112782186,20.0,19.0,100.0,93.0,3.794864516984302,1
407.0,9.918406019306785,10.042585956679254,12.380884348167708,12.418916470140758,0.2155541681894922,0.0600636019669038,0.0502180579006256,0.0699868271429361,0.0649217680003552,0.0911615008096646,0.0835741169128067,0.0729461742842704,0.1108202697373601,0.0397526866580278,0.0577184800257692,0.0840125225509681,0.0395495841741214,0.07394399184161,0.0969011481034298,0.0889088366591092,0.2853711941135997,0.2218566505938814,9.79161309718663,9.79161309718663,0.1534290638873982,0.1241123512130158,32.54672759375904,33.10759007691301,11.28211112782186,20.0,19.0,100.0,93.0,3.794864516984302,1
408.0,9.918432138161474,10.043587907389067,12.40233891796018,12.45925782718484,0.2112980417163765,0.0598726872797193,0.0517562685482907,0.0756731907736327,0.0641458597971904,0.0899450411500165,0.0825198919372561,0.0727246337281761,0.1079479068470271,0.0416760378798446,0.0590601613110048,0.0821655991756962,0.0408682574134086,0.0687539224447034,0.0955781268405573,0.0874119401422991,0.2834673451886303,0.2194234450087509,9.788189364850862,9.788189364850862,0.1533963108514703,0.1241295155492632,32.54620205189831,33.107927396930684,11.28211112782186,20.0,19.0,100.0,93.0,3.794864516984302,1
409.0,9.91744792493948,10.045645850669397,12.425154160601972,12.488695736710476,0.2066158421579673,0.0597901025936806,0.0526900556703546,0.0776970482404821,0.063317282949278,0.0883868521107004,0.0827782390207432,0.0743583755825668,0.1068194511129695,0.0443561992131774,0.0605077325764884,0.0807515771459602,0.0408747331616583,0.0669530427656856,0.096373676141215,0.0868428683139746,0.2807642239366106,0.2185646970541794,9.778817701277902,9.778817701277902,0.153364080370439,0.1241456106767693,32.54579116936634,33.10822936181767,11.284442037225457,20.0,19.0,100.0,93.0,3.794864516984302,1
410.0,9.915396595326907,10.047774283732643,12.448069696423357,12.513520293134498,0.2018743644075298,0.0607760597094453,0.053480942734746,0.0742314739427611,0.0633436514454705,0.0864300858659693,0.0828118467916663,0.0766047015102278,0.1074165723816958,0.0469199913674301,0.0614263953591025,0.0802681215980621,0.0396084018960485,0.0679959081505054,0.0977302378942129,0.0884262240321989,0.27778623543915,0.2194054037946481,9.766042824886124,9.766042824886124,0.1533313633771311,0.1241545576027277,32.54539297204465,33.10839761983178,11.284442037225457,20.0,19.0,100.0,93.0,3.794864516984302,1
411.0,9.913830009081764,10.048265111421856,12.473832500174758,12.530302629877408,0.1976883752264978,0.0618924884340843,0.0540773758741284,0.0676677393351779,0.0644676032529678,0.0847190035006029,0.081796901926979,0.0782080144017853,0.1087227247720824,0.0488284762772441,0.0618395155341482,0.0811919449413816,0.0383133634110403,0.0698387649715042,0.0977375965742434,0.0909708234635534,0.2753001625958258,0.2215971840358072,9.752360293693222,9.752360293693222,0.1533016072502355,0.1241674549801366,32.54507273283468,33.10864462914756,11.284442037225457,20.0,19.0,100.0,93.0,3.794864516984302,1
412.0,9.913695138351311,10.046066858999543,12.494116961186668,12.539535231185509,0.1961637880232428,0.062061771792279,0.0539655447612911,0.0611964118776632,0.0668289459153167,0.0850372636101904,0.0805144961406822,0.0789774010663377,0.1097950260528302,0.0500896507203097,0.0618626982471568,0.0843824230562216,0.038294569427107,0.0711946675817238,0.0971755967321375,0.0924817220678163,0.2740147236347813,0.2247663894470128,9.741823325128625,9.741823325128625,0.1532677874022775,0.1241781514612552,32.544763057754416,33.10895067807555,11.29004513460487,20.0,19.0,100.0,93.0,3.794864516984302,1
413.0,9.913912833636909,10.04149209934506,12.49183690772313,12.549718428221338,0.1972071246832807,0.0614079954476351,0.0527929240781974,0.0566750552533764,0.0702729236125284,0.0890775350266953,0.080286719862844,0.0796607920573759,0.1100345561717473,0.0508281113782216,0.0613020481535092,0.0905477194431481,0.0399279173431931,0.0720435423312201,0.0991720696520469,0.09209918917381,0.2740901171354059,0.2286562253257874,9.738539632180323,9.738539632180323,0.1532355947316795,0.1241849343425012,32.544422376844395,33.109272019068335,11.29004513460487,20.0,19.0,100.0,93.0,3.794864516984302,1
414.0,9.912736169352854,10.036422670273373,12.463835618085549,12.561544713893834,0.1977045926109385,0.0607621662932566,0.0509813356273533,0.0543519806966803,0.0733508502543203,0.095991232004083,0.0815543119787629,0.0808387318718186,0.1090660953521363,0.0511235453929919,0.0601424719400194,0.098608096950897,0.042275890304875,0.0726578386061661,0.1054052795406537,0.0908515381486424,0.2749197847462032,0.2329048353692743,9.743850672858605,9.743850672858605,0.1531975708014552,0.124200461844751,32.54402167603313,33.109562268985044,11.29004513460487,20.0,19.0,100.0,93.0,3.794864516984302,1
415.0,9.910254185216145,10.033407047475022,12.434499512037307,12.563987366353512,0.196424379453574,0.0605201341919838,0.0495058053545508,0.0532530049312924,0.0742598912906166,0.1017653833336187,0.0832911168419276,0.0820962913979028,0.107564408735772,0.0508692462959624,0.058793154243865,0.1054779672692991,0.04375977854766,0.0733860467750685,0.1132807475341027,0.0903859104548596,0.275577542329202,0.2368704114078287,9.755204561438424,9.755204561438424,0.1531684071203621,0.12420776660593,32.543660895024715,33.109858128353224,11.29004513460487,20.0,19.0,100.0,93.0,3.794864516984302,1
416.0,9.908351098961536,10.03369924656764,12.432053584856275,12.547309209890855,0.1953356912984905,0.0602157368517115,0.0488357413234549,0.052063001853474,0.0730525312639083,0.1026753693937645,0.0839938400664787,0.0823577543707768,0.1069156896131315,0.049589234338438,0.0573833946891499,0.1086964958503553,0.0434737625889933,0.074961101615961,0.1182565934601561,0.0908137653938605,0.2755646371522393,0.2398842413639555,9.767580157547451,9.767580157547451,0.1531392328198925,0.1242150952262567,32.54325037699119,33.11020950603959,11.300889881761377,20.0,19.0,100.0,93.0,3.794864516984302,1
417.0,9.908112094796545,10.0362719330164,12.457866338413584,12.51873242761286,0.1956891702018048,0.0594445099923498,0.0487622978924092,0.0504377358547623,0.071713559628447,0.0992845844818185,0.0834007359861365,0.0810836094761307,0.107472243200652,0.0472483515476857,0.0556048437446254,0.1091024752309551,0.0419127941276952,0.0776586494974289,0.118864864634308,0.0912133258219381,0.2751942118024116,0.2416881287418249,9.77752056771952,9.77752056771952,0.1531067858944462,0.1242210779615452,32.542887995235304,33.11052698920211,11.300889881761377,20.0,19.0,100.0,93.0,3.794864516984302,1
418.0,9.909119216497237,10.038933196389182,12.495954718336176,12.502238167674795,0.1967718622061875,0.0588938208848518,0.0492192425400249,0.0497028644078599,0.0717511099370183,0.0955235633308834,0.0825372955488985,0.0789217260269079,0.1082206306587505,0.0449046728740732,0.0537065213182063,0.1100252952145964,0.0404039077858878,0.0799669199944989,0.1173050680340213,0.091496588877792,0.2752975357133466,0.2425062892931373,9.785292899787963,9.785292899787963,0.153080268001248,0.1242276622298611,32.54256183531215,33.11080163666888,11.300889881761377,20.0,19.0,100.0,93.0,3.794864516984302,1
419.0,9.910412834246824,10.040511571347723,12.528252602334444,12.51036401551482,0.1987682142871721,0.0595266766340527,0.050244772923131,0.0516016689885686,0.0725626911904755,0.0940648223975637,0.0823069202524713,0.0771455806842654,0.1083101499618979,0.0436246225247264,0.0527502040327397,0.1129418851492224,0.0399950981212975,0.0795629843063216,0.115988873668735,0.0922532725614193,0.2764642616268628,0.2426506935057539,9.790871039931671,9.790871039931671,0.1530508609966339,0.1242298120530198,32.54240246093522,33.11109694843693,11.300889881761377,20.0,19.0,100.0,93.0,3.794864516984302,1
420.0,9.911347679792328,10.041702583681358,12.536596066003938,12.526099836052651,0.2029177373431484,0.0611385486919798,0.0515366737534674,0.0558269473669188,0.0726014451335643,0.0941886624756538,0.0829746495610132,0.0767807860545412,0.1079932282336751,0.0433619817628571,0.0534174535845237,0.1152406832357043,0.0408064688526786,0.0763917086210583,0.1155461266669424,0.0936731015190715,0.2783550464190745,0.2421426974863087,9.789901159554423,9.789901159554423,0.1530254817933005,0.1242332311189211,32.542192343513854,33.11142705521177,11.317731086530324,20.0,19.0,100.0,93.0,3.794864516984302,1
421.0,9.9120749719079,10.043052470814157,12.519206840871956,12.52772685643768,0.207619714537562,0.062697383479256,0.0528081153959347,0.0593140371613705,0.0713411005332578,0.093789134268371,0.0843821290341615,0.0780225781870219,0.107945278357464,0.0434613025084736,0.0551824203078661,0.1135459441609431,0.0419412639074066,0.0730793136181383,0.114908649237024,0.0952543818904253,0.2796592791049261,0.2407664067509296,9.777801656064335,9.777801656064335,0.1530047182536825,0.1242309140787078,32.54200220744706,33.11168444474138,11.317731086530324,20.0,19.0,100.0,93.0,3.794864516984302,1
422.0,9.912590508611263,10.04329217582142,12.4968169298585,12.515279087933514,0.208167747952084,0.0638060213773437,0.0540181832526327,0.0592379393269237,0.069570046784177,0.0917364103815058,0.0856678703771713,0.0801316054114071,0.1083456442026863,0.0437314872722698,0.0569510739899537,0.1074974494001669,0.0422799862107865,0.0717013661426353,0.1128994986570526,0.0964109153927536,0.2788791389984216,0.2384214116674405,9.75763184742093,9.75763184742093,0.1529748650922763,0.1242312075278782,32.54178728275499,33.11189163803552,11.317731086530324,20.0,19.0,100.0,93.0,3.794864516984302,1
423.0,9.912612997147876,10.041854068893672,12.488656099587216,12.501865774066152,0.2021660040979301,0.0648304129368518,0.0548860754141243,0.0561277168349575,0.0682861440607889,0.0884329491283154,0.0857725561703561,0.0819831448841755,0.108575750517379,0.044567815631834,0.0580697190938798,0.099377065573732,0.0416408482708811,0.0717334801733311,0.1100516865432718,0.0973091693319748,0.2754105298355119,0.2353661205855951,9.740671564252189,9.740671564252189,0.1529431371021633,0.1242333120495037,32.541585701273355,33.112130382841634,11.340165033071925,20.0,19.0,100.0,93.0,3.794864516984302,1
424.0,9.912533218324771,10.04121543747027,12.490928750155083,12.496070781076112,0.1923036883803489,0.0654635045865443,0.0547590619420355,0.0525935206354953,0.067620851360712,0.0852238833096457,0.0846502478880072,0.0829850041603353,0.1079007232718721,0.0462953467761478,0.0585504315183469,0.0914567253442861,0.0404506476041774,0.0715418279309502,0.1075609237191855,0.0984462010286539,0.2700633587981147,0.2321984309464172,9.737466551662736,9.737466551662736,0.1529125014150102,0.1242299241584555,32.54140288888464,33.11241259216714,11.340165033071925,20.0,19.0,100.0,93.0,3.794864516984302,1
425.0,9.912468821463689,10.043553301918353,12.480149882040736,12.496911797714894,0.1831509314643132,0.0647110130629696,0.0534859508614494,0.0501188843187614,0.0668226773871847,0.0833962316158185,0.0827817318379453,0.0835809596067101,0.1065928300413958,0.0486489339827891,0.0585354157126144,0.0854555399741932,0.038817365731614,0.0708236273637206,0.1050341682248796,0.0994585179312373,0.2646352529029476,0.2297134955310174,9.74871156513256,9.74871156513256,0.152883819912715,0.1242457880885229,32.54121167975748,33.11264341862103,11.366860497372064,20.0,19.0,100.0,92.0,3.794864516984302,1
426.0,9.91186938518852,10.046888054427896,12.4410737467773,12.498448795460488,0.1779578864872185,0.0628503956095232,0.0519707637109863,0.0485757203184546,0.0653245155605928,0.0834823297836672,0.0804024115099157,0.0844360825679559,0.1056261729087898,0.0506664559123872,0.0579594912759617,0.0843709511233227,0.0373413188029111,0.0708065607422131,0.1015354394345573,0.0991909933483875,0.261033979009977,0.2287671794097676,9.764217200810862,9.764217200810862,0.1528549197493229,0.1243932057647755,32.54097975143088,33.11288665669681,11.366860497372064,20.0,19.0,100.0,92.0,3.794864516984302,1
427.0,9.91066674946771,10.04756718620318,12.390750610530354,12.505541961384417,0.1780734041804928,0.0615255203950413,0.0511583709459398,0.0479421714738237,0.0634813432595454,0.085232118460214,0.0786572775224008,0.0853825453657974,0.1052359206567279,0.0513114642283976,0.0571783504155028,0.0911180444368257,0.037630523887328,0.0723717426388548,0.0985002165464379,0.0970592241794609,0.260430821857383,0.2299254542666372,9.77208287877661,9.77208287877661,0.1528305966866458,0.1244422073172194,32.540746349187486,33.113246212805926,11.366860497372064,20.0,19.0,100.0,92.0,3.794864516984302,1
428.0,9.909092916691035,10.044830210494906,12.358294452100344,12.531953281537826,0.1826127900015852,0.0614294511082826,0.0509447384739496,0.0488036644993546,0.0625340310344569,0.0877611394243977,0.0797157313761581,0.0862180505834009,0.1048386564357911,0.050524836424289,0.0571010302957362,0.1036791909508799,0.0402259178953175,0.0749842375245787,0.0991641813777049,0.0941174825158287,0.2628773368606509,0.2329834784716133,9.77035227806647,9.77035227806647,0.1528025748354359,0.1244836550011823,32.540614028370534,33.11360867157436,11.39588250670766,20.0,19.0,100.0,92.0,3.794864516984302,1
429.0,9.907659816104989,10.040823222585637,12.34719146682925,12.564355706276029,0.1880561983891014,0.0614438279110341,0.0505819271031713,0.0513238108165094,0.0643846352570381,0.0901441018520892,0.0839836879114672,0.0874415915898039,0.1045350420761074,0.0494408849537742,0.0577834682063167,0.1142642491159625,0.0431208802099579,0.0773503345312165,0.1042607861611888,0.0925721223092133,0.2674860860811681,0.2368426333295197,9.765949583237443,9.765949583237443,0.1527707736798951,0.1245259688946398,32.540459276682945,33.11384743514091,11.39588250670766,20.0,19.0,100.0,92.0,3.794864516984302,1
430.0,9.90761431147509,10.038032532907131,12.34249917657378,12.557475459318306,0.1908699704304561,0.0603210367324056,0.0496284406690896,0.0551461708857958,0.0703063348135995,0.0926901901287846,0.0887307692073047,0.0891280219807269,0.1052823097546916,0.0491278749209774,0.0580391133563568,0.1156566685769495,0.0438191204329756,0.0784096130135176,0.1102863913082544,0.0938726287108366,0.2730536343875873,0.2401503946378134,9.762856103244475,9.762856103244475,0.152748984870936,0.124565767526968,32.540382302221325,33.1141220262239,11.39588250670766,20.0,19.0,100.0,92.0,3.794864516984302,1
431.0,9.9096684373693,10.037457402585984,12.345265811369284,12.494888710564044,0.191319177089108,0.0583209156023749,0.0483544511454345,0.0592174513342768,0.0786214231890934,0.0964032642899652,0.0909663486268629,0.0913036908990179,0.1071891761211625,0.0494132877430121,0.057409533825419,0.1085145782131658,0.0420657668308562,0.0780275564128203,0.1140117377384556,0.0972927719991518,0.2786371802950645,0.2422045199536776,9.758635383166093,9.758635383166093,0.1527208239247507,0.1246087287085871,32.54031807353194,33.11425298645601,11.425033668161452,20.0,19.0,100.0,92.0,3.794864516984302,1
432.0,9.912609682846172,10.03782267180695,12.364206514405629,12.43189214005158,0.1922937386656245,0.0569820169469335,0.0477036103019453,0.0608957190887019,0.0849195680499963,0.1006818903768369,0.0907855523932589,0.0956599868450998,0.1088036053805808,0.0494940018583956,0.0571665872870765,0.1014191099087654,0.0395893444511299,0.0765922187290228,0.1165482796218849,0.1004675633687709,0.2836052150867086,0.2431178765854042,9.752837067625247,9.752837067625247,0.1526960374577342,0.1246575045869549,32.54026055154247,33.11433657217275,11.425033668161452,20.0,19.0,100.0,92.0,3.794864516984302,1
433.0,9.913907505420804,10.037185175250404,12.381851411184211,12.441876934748784,0.1947753651351676,0.057648327807215,0.0484883347142602,0.0584770379013445,0.0861224155106677,0.103555321445311,0.0905104899463543,0.1034246120737771,0.1085838638460803,0.0490497901723151,0.0584059449694918,0.1023456203817497,0.03791451933593,0.0739441512979463,0.1197133833388181,0.1010398002821833,0.2872653907142279,0.2430767343820889,9.751134120641508,9.751134120641508,0.1526761115889059,0.1247053054214263,32.540214205258,33.11449994346238,11.425033668161452,20.0,19.0,100.0,92.0,3.794864516984302,1
434.0,9.91253442022152,10.035750673289677,12.376468708818669,12.52329598893314,0.196726306400372,0.0599297318202161,0.0501019247810649,0.0550571821560728,0.0830725602283242,0.104306725957925,0.0911355187818599,0.1109334368299476,0.1069074628581625,0.0481241233880466,0.0603259804409644,0.1100561701230691,0.0373534310462957,0.0703643919630944,0.121280510314082,0.0981939183133711,0.2886815216862006,0.2416992523208805,9.75876992124361,9.75876992124361,0.1526530605781652,0.1247619238573558,32.54008047630593,33.11473401040876,11.452163045019072,20.0,19.0,100.0,91.0,3.794864516984302,1
435.0,9.911050061325929,10.035853899734365,12.36620759779209,12.593304648903954,0.1957883295256464,0.0617238790191069,0.0509058391759097,0.0555030251875993,0.0787122425291791,0.1035926552411089,0.0913425744809321,0.1115977553019248,0.1054893739403028,0.0467061989062859,0.0613476208911935,0.1151729827782925,0.0376296506159351,0.0677642558380183,0.1177934287861546,0.0933224263584714,0.2870793943529061,0.2383817847979862,9.773713287357053,9.773713287357053,0.1526351146454673,0.1248151392594488,32.53997270080479,33.11491647500093,11.452163045019072,20.0,19.0,100.0,91.0,3.794864516984302,1
436.0,9.912297983747658,10.038942026987057,12.376807327054031,12.58191153045076,0.1918700720661122,0.0615260964498514,0.050246474123749,0.0595000395330235,0.0753844399960941,0.1016800832011819,0.0896486763493789,0.1039077214836403,0.1048438635958334,0.0450335401044706,0.0610838310645173,0.1108599884923715,0.0385403506157236,0.0674898089693924,0.1097817573308172,0.0888333002149762,0.282524432592492,0.2332367460088382,9.786411277108048,9.786411277108048,0.1526167417011381,0.1248676272455549,32.53979063696264,33.11508132253141,11.452163045019072,20.0,19.0,100.0,91.0,3.794864516984302,1
437.0,9.915190252833185,10.04390027764052,12.394704586590937,12.504044109018214,0.1867570325621317,0.0600672574510335,0.0490106367449037,0.0616577120546679,0.0736108855521474,0.0986379381507273,0.0865116101147219,0.0933043596455773,0.1043051753339714,0.04372868080541,0.0602691757812986,0.1006266916083581,0.0398272841838992,0.0686759258127766,0.1014711824509462,0.0861980468587743,0.27616228884381,0.2274440841160202,9.786760616139272,9.786760616139272,0.1525996871604462,0.1249263087233465,32.539593926961736,33.11514109442602,11.475421678019456,20.0,19.0,100.0,91.0,3.794864516984302,1
438.0,9.916999489000776,10.048941713808157,12.401706198713889,12.425384667148531,0.182176408964322,0.0589908934224939,0.0483131239260701,0.0587615879513857,0.0728417130169169,0.09520926469035,0.0838304439664005,0.0857165277646666,0.1038172722909953,0.0432936167282392,0.0594304801221019,0.0926188853677075,0.0408751310822134,0.0701071565991332,0.0963517280037597,0.0852492399302745,0.2696669428467041,0.2225010156832952,9.774428672719887,9.774428672719887,0.1525876470070077,0.1249885026604575,32.53941032641269,33.11523965019808,11.475421678019456,20.0,19.0,100.0,91.0,3.794864516984302,1
439.0,9.9171741505965,10.053534977735636,12.410060997985395,12.382943521687396,0.1789507544480269,0.0589563455421081,0.0487676779861146,0.0533748296142831,0.0728944132424339,0.0923379447752426,0.0825363339073458,0.0829707461620527,0.1037125474152618,0.0436298501994816,0.0585852141619755,0.0899520565875469,0.0410269513113572,0.0715378017588396,0.0944431133726741,0.0848623586032889,0.2644282097063949,0.2192617275910351,9.759806002268398,9.759806002268398,0.1525714036458332,0.1250522328922834,32.53922363046162,33.11533650111581,11.475421678019456,20.0,19.0,100.0,91.0,3.794864516984302,1
440.0,9.91678921798614,10.057832634979311,12.43772415059436,12.370191226514477,0.1767187560139333,0.0595418592902659,0.0505868242749224,0.0497184678718385,0.0735159500465446,0.0901541836782271,0.0821299563128497,0.0833023437479806,0.103465521123792,0.0440051045716135,0.0577795580342776,0.0907364249669794,0.0401408951514841,0.0726778129426074,0.0937560338601895,0.0843104450037035,0.2610426224550435,0.2176662332687272,9.75371100851988,9.75371100851988,0.1525552131471685,0.1251211458918233,32.53891818442473,33.11530591849316,11.493464379693888,20.0,19.0,100.0,90.0,3.794864516984302,1
441.0,9.91672662908142,10.061582788873222,12.481693084999542,12.378092223385442,0.1750141136008978,0.0601288899689508,0.0530622752010136,0.0494579088561394,0.0737766084308551,0.0882593709782398,0.0817886804771036,0.0840383515104726,0.1022648065754677,0.0439706993103357,0.0571071934371617,0.0934854557576385,0.0387512530538345,0.0725826981738075,0.0930798675797211,0.0838332844306656,0.2594948807055023,0.2172869689004169,9.759668007935064,9.759668007935064,0.1525434247952941,0.1251912550943747,32.53866000317732,33.115230660724414,11.493464379693888,20.0,19.0,100.0,90.0,3.794864516984302,1
442.0,9.916826561775515,10.063885056432063,12.52156543498824,12.403454886413558,0.1748786489522483,0.060340325104064,0.054318202684703,0.0519778796339121,0.0732746091761691,0.0869032797114481,0.0807423884967847,0.0836596922394821,0.100717446967792,0.0442052338880339,0.0564692378349647,0.0979059841156788,0.0378222192437921,0.0709751369615395,0.0923275852917347,0.0836369891901524,0.2596613030259859,0.2179080360285489,9.77272533399379,9.77272533399379,0.1525304748599009,0.1252604985273467,32.538521913217004,33.11519204233768,11.493464379693888,20.0,19.0,100.0,90.0,3.794864516984302,1
443.0,9.916389786104633,10.063631807112424,12.540855027996807,12.434559010013878,0.1779501299791263,0.0600284500648331,0.0532924801428486,0.0553657682753781,0.0726780194631363,0.0866676508526647,0.0791123158013051,0.0822924499325204,0.100673981932941,0.0454110837532275,0.0558163468870591,0.1027498255618028,0.0380665929516608,0.0689568002418497,0.0917092029752826,0.0834722447388626,0.2615910292281115,0.2196515614069948,9.782678672360673,9.782678672360673,0.1525191691474204,0.1253253986006135,32.538369967778046,33.115075671302165,11.505603295985493,21.0,19.0,100.0,90.0,3.794864516984302,1
444.0,9.915280828427289,10.060288819478728,12.533954874863038,12.458494845440717,0.1841178637726508,0.0593401384475367,0.0513552011475297,0.0574317850579023,0.0726077138594338,0.0875730328188442,0.0782947065251698,0.0810591595661649,0.1029891766663271,0.0471791840799419,0.0552795324522183,0.1060735724806571,0.0395064904911317,0.0674095969212755,0.0918533642726593,0.0836295089105857,0.2653460552341038,0.222773223421114,9.783336491378828,9.783336491378828,0.1525123869004613,0.1253927856862921,32.538049875906616,33.11501411736746,11.505603295985493,21.0,19.0,100.0,90.0,3.794864516984302,1
445.0,9.91353377303648,10.054381217477289,12.493775270575128,12.47223888022836,0.1915903668245195,0.0587613534923448,0.0503327827353108,0.0576241647539354,0.073305696726035,0.0898166061054433,0.0797917335962294,0.0811478422051316,0.1062530065433013,0.0489946640151582,0.0548477037920751,0.1078093878126874,0.041990103533107,0.0662159553943346,0.0942885329062477,0.0851550572970834,0.2706129828372345,0.2273497465192051,9.778987076700645,9.778987076700645,0.1525030540111772,0.1254616752291753,32.5377453197986,33.114892113973525,11.505603295985493,21.0,19.0,100.0,90.0,3.794864516984302,1
446.0,9.911180439678912,10.047559912752686,12.417305674475683,12.487958191475728,0.1983926564108283,0.05872571709458,0.0502991968276627,0.0568054888161865,0.0748092041846406,0.0938300817798709,0.0840893386143374,0.0833989084289037,0.1083307371521735,0.0507857539509759,0.054461827222739,0.1103726174769239,0.0454588381919519,0.0655284133597768,0.1007318490586833,0.0888590723509518,0.2764472534942773,0.2328914096080057,9.77752253315538,9.77752253315538,0.1524978439309676,0.1255298297637038,32.53743089145744,33.11477106461017,11.511911863530212,21.0,19.0,100.0,90.0,3.794864516984302,1
447.0,9.90906821115226,10.042393543877772,12.332143800700448,12.520900920332895,0.202380740561364,0.0591002840740542,0.0503963421883568,0.0564421318244579,0.0763391296059349,0.0983938636456102,0.089742265074488,0.0875037373390341,0.1085050837725392,0.0519136647676893,0.0544293624057485,0.1149437163100304,0.0488869117077376,0.0657002340717325,0.1100326698231542,0.0939530862018634,0.2814307908361069,0.2381079566622351,9.779737885124677,9.779737885124677,0.1524907079972798,0.1255986361696157,32.53711498433764,33.11462707859555,11.511911863530212,21.0,19.0,100.0,90.0,3.794864516984302,1
448.0,9.908328552811906,10.040625187264736,12.288672725328134,12.557314558464745,0.2021295266009672,0.0594434386822456,0.0501062501540283,0.0588846002150866,0.0767755652763444,0.1008770547408712,0.0937479424262967,0.0909860933785973,0.1073305739351124,0.0512780869022166,0.0550060701536507,0.1189452845516078,0.0501967369683411,0.0660366137936477,0.1166310577973296,0.0975171286907354,0.2842611284938874,0.2413397204130589,9.78097538906249,9.78097538906249,0.152489404387726,0.1256615857373596,32.5369167436108,33.11445758638767,11.51326606782562,21.0,19.0,100.0,89.0,3.794864516984302,1
449.0,9.909337723596792,10.040638895522534,12.303534510413895,12.56345643985362,0.1986174222718233,0.0597644202597296,0.0493674015090963,0.0648361146310033,0.0762182192097097,0.1002989799175288,0.0946408000728968,0.0912862494345766,0.1058477818315655,0.0488637044032698,0.0558463217687979,0.1193613738715058,0.0487561678384467,0.0657612158188351,0.1161798187840193,0.0972326522980644,0.2843834541629039,0.2416224052547818,9.778775975160144,9.778775975160144,0.1525967001753589,0.125718075092986,32.5365622597241,33.1142971195213,11.51326606782562,21.0,19.0,100.0,89.0,3.794864516984302,1
450.0,9.911640516718856,10.03953568088976,12.348207003612432,12.535677835587707,0.1939179921208408,0.0602462406469112,0.0486187307397975,0.0706509621135262,0.0757781143561273,0.097860799308072,0.0937051196175312,0.0889694469867691,0.1053147226251211,0.046178079058215,0.0565413136715738,0.1161705310118624,0.0464348153776031,0.0656902560508984,0.1109198161709424,0.0943547899911114,0.2821891135429976,0.239400735479834,9.772786463312231,9.772786463312231,0.1526231691299255,0.1257734393504037,32.53611476160422,33.114114228284585,11.51326606782562,21.0,19.0,100.0,89.0,3.794864516984302,1
451.0,9.914050949608496,10.037505997510936,12.401061878439569,12.499995165981831,0.1894987878423329,0.0604651669069388,0.0484657410756826,0.0717593531762949,0.0760042479965253,0.0946026691698101,0.0919081921942853,0.0863502527084374,0.1058983794243204,0.0447043023477465,0.0571559247183695,0.1110802737440121,0.0449040030668212,0.067238989717023,0.1058360365248438,0.091781930838001,0.2787359753667019,0.2360706047385792,9.763067647523505,9.763067647523505,0.1526506253818417,0.1258263364628367,32.535820893574055,33.11391466736573,11.511302737861268,21.0,19.0,100.0,89.0,3.794864516984302,1
452.0,9.915301461861034,10.03690422162309,12.462567423869205,12.473638574061642,0.1868802949832174,0.0600186046361163,0.0489788808889592,0.0678101592201512,0.0765948762772572,0.0910737219238616,0.0887067731117385,0.0842449156478329,0.1064072333058273,0.0446066248815284,0.0577414488116701,0.1055908858358827,0.0438997723317283,0.0702375637074718,0.103477294669898,0.0907972314727043,0.2753470576381781,0.2329061603675891,9.751918432809298,9.751918432809298,0.1526751226541106,0.1258711922448122,32.53564046999898,33.11364803185,11.511302737861268,21.0,19.0,100.0,89.0,3.794864516984302,1
453.0,9.915158250972947,10.03861725370506,12.523288971225924,12.459267635540446,0.1877150101748753,0.0592890904031536,0.0496421774440224,0.0619902724002997,0.0771952583900822,0.0884505935342959,0.0844634082158616,0.0820068924871645,0.106006138031109,0.0450047332305796,0.0578001091223583,0.1013127755158526,0.0426442702459186,0.0726831484653431,0.103421887502739,0.0904830005125845,0.2731447822834689,0.2304440955278356,9.74308444921276,9.74308444921276,0.1527109822951986,0.1259161201610983,32.53529631064788,33.113335786566054,11.511302737861268,21.0,19.0,100.0,89.0,3.794864516984302,1
454.0,9.914295923957814,10.041834721301091,12.55124925285462,12.45779793527318,0.1925541199581972,0.0588431582246136,0.0498476033001864,0.0569086488771246,0.0778255470196977,0.0880751651094898,0.0810780289439366,0.0794009150213738,0.1048305313538033,0.0448945080760625,0.0568135004811921,0.1012027302185413,0.0412273677232978,0.0729685231089722,0.1031726590897633,0.0886904932981456,0.2725085075197979,0.228664494818654,9.739540940498568,9.739540940498568,0.152800873618519,0.125949141514915,32.53498393924599,33.11300844717926,11.508278411184753,21.0,19.0,100.0,89.0,3.794864516984302,1
455.0,9.913370832897128,10.046198664923914,12.52605965611207,12.472585334702297,0.1993375502761744,0.0588984753990108,0.0493552657839867,0.0533185894647469,0.0785044989586858,0.0898690288734292,0.0797020090871556,0.076914620907846,0.1037410940677189,0.0438067153494674,0.0551908665337222,0.1074120437272258,0.0402259866454338,0.0719145187155422,0.1006134886469851,0.0844856905325405,0.2727571612282027,0.2273351746338316,9.74389171363952,9.74389171363952,0.1528574864749589,0.1259755833461008,32.5346465869952,33.112759088292144,11.508278411184753,21.0,19.0,100.0,89.0,3.794864516984302,1
456.0,9.912622078571047,10.05106546320467,12.472352952968048,12.497996531032095,0.2036874718395419,0.0593484541215601,0.0484988416129017,0.0510135468974957,0.0783999806895778,0.0915514462614172,0.0792983951960237,0.0747251601100411,0.1041524484160752,0.0420164981565225,0.0539678287866004,0.1157716350195096,0.0397888993376863,0.0713998561694912,0.0968363239025202,0.0800557022193471,0.2725669835545997,0.2260486228844924,9.757294700926714,9.757294700926714,0.1529008822933859,0.1260018448391367,32.534220729354494,33.11248280694713,11.506827843737655,21.0,19.0,100.0,89.0,3.794864516984302,1
457.0,9.9122337851054,10.054139367690404,12.439253355601886,12.511154197672104,0.203031638669484,0.0598297508355949,0.0477583852187608,0.0496524055018586,0.0767227828269534,0.0904665804157247,0.077968485708754,0.0725842776674223,0.1062771812303029,0.0404427075306509,0.053485352634202,0.1176581989608336,0.0394967483266082,0.0715700835870075,0.0944020751009101,0.0782594929818404,0.2710127558420589,0.2242489876913098,9.774975023525958,9.774975023525958,0.1529534577225463,0.1260243835398468,32.53388209377602,33.112302852548865,11.506827843737655,21.0,19.0,100.0,89.0,3.794864516984302,1
458.0,9.912459597982275,10.054641963537277,12.454566097039155,12.499073925907531,0.1992465533017462,0.060165627675048,0.0471555252242439,0.049607676332967,0.0748116254647822,0.086579724454107,0.0751654309712155,0.0707070909686955,0.1077371728987747,0.0401966473373264,0.0530422781911728,0.1104612304383478,0.0389976548302596,0.0710208355046229,0.0937835844783391,0.0790356187422927,0.2683099597280531,0.2216638731722192,9.786406576267542,9.786406576267542,0.1529999513468125,0.1260389401522539,32.53355662991196,33.112023299566744,11.506827843737655,21.0,19.0,100.0,89.0,3.794864516984302,1
459.0,9.91291862544772,10.054638887282014,12.49954770162128,12.4826790734271,0.1953582233041272,0.0605771386923455,0.0465383655188606,0.0516606318342073,0.0747664955071446,0.0825324859848137,0.0721686542153441,0.0701200925674186,0.1058936050744298,0.0418027706928267,0.0521500289739177,0.1008006298277862,0.038463686764985,0.0691243167554583,0.0936680692625928,0.0800968603980257,0.2655272835074804,0.2188217197471796,9.784264167429402,9.784264167429402,0.1530565232333094,0.1260490083378732,32.533221612261755,33.111654209748416,11.50964379468681,21.0,19.0,100.0,88.0,3.794864516984302,1
460.0,9.91304700393222,10.05504679841816,12.526778973055126,12.49024600042192,0.1922993005807157,0.0610591016144223,0.0460997355886809,0.0555132404078608,0.0762334075234927,0.0808924247439294,0.0707677108735227,0.071583346653289,0.1013221440012012,0.0446321524862535,0.0515090617517203,0.0963310627292671,0.0384204047549225,0.0671107072063338,0.0933281398506404,0.0800526969501206,0.2636476887451671,0.2169305320422121,9.773628199898454,9.773628199898454,0.1531167760509031,0.1260505500570256,32.53279552403946,33.1113408355581,11.50964379468681,21.0,19.0,100.0,88.0,3.794864516984302,1
461.0,9.913276514634177,10.054392109820052,12.51028148154685,12.521964726873684,0.190128172875887,0.0609987262636511,0.0460781829662161,0.0590684431142031,0.0767561011570829,0.0819411096479347,0.0716286473046415,0.0738696789148186,0.0978205240538559,0.0470533348939799,0.0520746528876112,0.0986926220596476,0.0395287928016692,0.0667462577270006,0.0934138151745689,0.0795022028099516,0.2629694101255382,0.217016698434701,9.768424901252155,9.768424901252155,0.1531745411991225,0.1260510581702636,32.532393110665005,33.11104207786499,11.50964379468681,21.0,19.0,100.0,88.0,3.794864516984302,1
462.0,9.914225259729909,10.051740109982331,12.468890851072972,12.550886088326296,0.1898552439554054,0.0599145685024984,0.0465395613888577,0.05970683518182,0.0748682199683246,0.0838925522162357,0.0737555235964733,0.0746518089933174,0.098822058136157,0.0476119607259587,0.0536806096632981,0.1035436187288511,0.0420615606973697,0.0680844311312931,0.0946981301796665,0.0800669200479645,0.2632488928338469,0.219093860153261,9.77534120857456,9.77534120857456,0.1532368093971873,0.1260433623025675,32.53190534485042,33.110769590258286,11.519121491463482,20.0,19.0,100.0,88.0,3.794864516984302,1
463.0,9.915753975449311,10.048265926749044,12.439174735330251,12.547929590159642,0.1921697043968251,0.0585016782489263,0.0476608432895498,0.0571232049282806,0.0720593239386336,0.0847987401980008,0.0755323628284258,0.0740458150161444,0.1040366409194132,0.0463013749054805,0.055338077147154,0.1046556299431231,0.044825148575189,0.0694938084003545,0.0964124046093686,0.0832192386820715,0.2641247386407208,0.2221866913511751,9.785866568968784,9.785866568968784,0.1533002253819,0.1260245849299223,32.53162478916263,33.11042390315576,11.519121491463482,20.0,19.0,100.0,88.0,3.794864516984302,1
464.0,9.917494724319612,10.045927277991128,12.440408690884292,12.506497834421694,0.1954877179790391,0.0580109703732798,0.0494009870307558,0.0538161035519078,0.0713214046824341,0.0839312089436994,0.0759717868358567,0.0744354587758275,0.1101193819796181,0.0443311862765979,0.0563267557360422,0.0996819710211499,0.0459297951773313,0.0698506032004995,0.0970481862038381,0.0888891263113622,0.2653236542778866,0.2252011227802015,9.788822967270926,9.788822967270926,0.1533628114194422,0.126001908055781,32.531481442587875,33.11007069483114,11.519121491463482,20.0,19.0,100.0,88.0,3.794864516984302,1
465.0,9.918862547345322,10.045093419429069,12.466718167597932,12.450369524443024,0.1974237238225828,0.0584113122199652,0.0509951409890486,0.051991537269826,0.0736231530986396,0.0821617795222029,0.075205143845277,0.0759192699777066,0.1141382540979508,0.0429189474106849,0.0563417346902323,0.0932842775182743,0.0452417798946084,0.0695934478016625,0.0971109525546232,0.0940810519994116,0.2666685060497665,0.2277115060942491,9.78466438446778,9.78466438446778,0.1534245274428361,0.1259681311970111,32.531181337467466,33.10976228602739,11.537024606048742,20.0,19.0,100.0,88.0,3.794864516984302,1
466.0,9.919393892099412,10.044517309629056,12.506523585437748,12.423236541595037,0.1977380402702524,0.0585922914023292,0.0517023952353425,0.0521385182166612,0.0767609442348066,0.0813230075918857,0.0744916979562464,0.0757870480338109,0.1156361645082676,0.0428340688428318,0.0555128618153513,0.091900816271339,0.0440792370267873,0.0695704428811065,0.0993354517078913,0.0949659759913886,0.2681064415020331,0.2299713721430891,9.78188579590442,9.78188579590442,0.1534890326410048,0.1259328455563332,32.530836575164905,33.1094573379984,11.537024606048742,20.0,19.0,100.0,88.0,3.794864516984302,1
467.0,9.91951463171891,10.043772775935738,12.554692898483005,12.456981158788812,0.1985868758899049,0.058439746842558,0.0517394424884466,0.0542030370071885,0.0777205613601119,0.0824151145774967,0.075191310235269,0.0729849566778598,0.1158351214158968,0.0445771788937549,0.0547779556967155,0.0957276392100066,0.0427118793193996,0.0694088017045132,0.105364666482584,0.091744375718581,0.2696248846744068,0.2322496636902825,9.78451678166057,9.78451678166057,0.1535532633938,0.1258906214766813,32.53051764804165,33.10908997242329,11.537024606048742,20.0,19.0,100.0,88.0,3.794864516984302,1
468.0,9.919937163162624,10.04397892736664,12.5963842556257,12.5307199130239,0.2015825407283874,0.0588486029863206,0.0517322819119388,0.057764743695309,0.0753914560305613,0.0845739850736101,0.0775465170128749,0.0695072750065352,0.1157884916059453,0.0480341676286946,0.0551112946660344,0.099555229689609,0.0406608274554118,0.0682315389425646,0.1130785009718414,0.0885090088514302,0.2709433966528468,0.2342963681841447,9.78830612825126,9.78830612825126,0.1536184528894343,0.1258429910611573,32.530247067308736,33.10861606373839,11.564229977170593,20.0,19.0,100.0,88.0,3.794864516984302,1
469.0,9.920874982538816,10.045633678165489,12.608455868353278,12.586870035964033,0.2042425107219481,0.0598181894162759,0.0518223508895325,0.0612951729925013,0.07135253901096,0.0860984933908137,0.0810269677664247,0.0678430939134545,0.1154136889819917,0.0521452554873072,0.056121184567677,0.099742246227421,0.0385047553115886,0.0668100087190339,0.1180176120404775,0.0879068847829571,0.2713554064044492,0.2354738312099202,9.787749624675447,9.787749624675447,0.1536784562386213,0.1257910487439959,32.52997219558161,33.10819381698525,11.564229977170593,20.0,19.0,100.0,88.0,3.794864516984302,1
470.0,9.921469042354166,10.047026138456898,12.59124742584589,12.598435405829512,0.2014645639752164,0.06030796654832,0.0518444519946172,0.0626968819470661,0.0682307024959615,0.0861391610626194,0.0849642275543047,0.069444322385364,0.1142467779344886,0.05538224158319,0.0563713398372198,0.0970767436433129,0.0373096668054342,0.0668454053699672,0.1177076289675597,0.0891035438104296,0.2701620545628441,0.2353619430659818,9.783019608696245,9.783019608696245,0.1537416442336761,0.1257320251937408,32.529643065081274,33.107853212230005,11.564229977170593,20.0,19.0,100.0,88.0,3.794864516984302,1
471.0,9.920468346364071,10.04639784134162,12.57776004428625,12.582643778007196,0.1925104817380319,0.0598354622464739,0.0517566298612516,0.0617090899424946,0.0673366106718222,0.084749332402268,0.0880017221974425,0.074040199140678,0.1125905096931431,0.0566312751416094,0.0553740658998778,0.0944607338759429,0.0371604306456146,0.0681559953488471,0.1136914664579432,0.0903213106551679,0.2673965529210852,0.2342062370855136,9.778455933724352,9.778455933724352,0.1538044844124501,0.1256761498657335,32.52940494353687,33.107521609947405,11.600595093537198,20.0,19.0,100.0,88.0,3.794864516984302,1
472.0,9.91840447154884,10.045243093445414,12.596424401137453,12.561893577010643,0.1833160540136088,0.0589366693407088,0.051599217367942,0.0604067216858097,0.0682087183688416,0.0822611928503909,0.0881324267990239,0.0787941654936906,0.111115640197584,0.0557575206851461,0.0543205522347075,0.0946126713842386,0.0373878517837135,0.068948385095747,0.1087119699254232,0.0905809369675484,0.2640176488987694,0.2327889158410972,9.776981469026357,9.776981469026357,0.1538633856915402,0.1256157264905606,32.529124208009314,33.10708508963287,11.600595093537198,20.0,19.0,100.0,88.0,3.794864516984302,1
473.0,9.916794693049418,10.046538751746109,12.63460524730468,12.555066388797345,0.17937307633511,0.0581263757618378,0.0512179874009651,0.0604221449343228,0.0698677258664524,0.0800274412889679,0.0850827839390756,0.0799987157569579,0.1100633229477541,0.0533542393185275,0.0542842591789462,0.0993965400391602,0.0376890268268037,0.0688875330159533,0.1043350084845605,0.0894967405298915,0.2612982655484735,0.2318245318957126,9.778159471333677,9.778159471333677,0.1539212563943622,0.1255535362691329,32.5289019532866,33.106701663506186,11.600595093537198,20.0,19.0,100.0,88.0,3.794864516984302,1
474.0,9.91562330772246,10.049717567254495,12.656079814940789,12.57795816317438,0.1805773901321671,0.0573163337629948,0.050244253119866,0.0614630122311822,0.0716116970896289,0.0800187277668212,0.0817774214598265,0.0768519065407352,0.1095176306896627,0.0501916188232912,0.0548627095960654,0.10774746705724,0.0382544364265239,0.0693006563108702,0.1020140505169017,0.0873332905622043,0.2599797066743461,0.2313451945457718,9.780905533717892,9.780905533717892,0.1539727275527085,0.1254845860775111,32.52877576555414,33.10635539093927,11.64496866809721,20.0,19.0,100.0,88.0,3.794864516984302,1
475.0,9.914222702649209,10.05094259887482,12.63531016420804,12.608685969589173,0.1842775534145833,0.056411757958471,0.048689743889038,0.0623833572362745,0.0728687372367836,0.0823832645389281,0.0810855614706043,0.0720062310699417,0.1095560294438593,0.0471535373257804,0.055083332855334,0.1139059118575555,0.0389427226569391,0.0702269267443138,0.1025804414827321,0.0851484644322552,0.2598520747421211,0.2306312059274468,9.78634758190239,9.78634758190239,0.1540203285451619,0.1254140228001524,32.528684065182006,33.1060107770467,11.64496866809721,20.0,19.0,100.0,88.0,3.794864516984302,1
476.0,9.913136435531449,10.048307503977314,12.567096616483434,12.5911542833215,0.1877520729484018,0.0557920885243459,0.0471246325779263,0.062741528555646,0.073272271203833,0.0851944396104776,0.0824036102602339,0.068105391371562,0.109807267813795,0.0449510036492352,0.0545431441068362,0.1121301385234329,0.0393219987580598,0.0700830303993592,0.1038748713410624,0.083572374374684,0.2599679331561971,0.2289288446178786,9.795519674548814,9.795519674548814,0.1540688139697722,0.1253392963448993,32.528729431901105,33.105649951756384,11.64496866809721,20.0,19.0,100.0,88.0,3.794864516984302,1
477.0,9.913139867262808,10.04383031734276,12.476185686164897,12.511251296775445,0.187911182419488,0.0558033325715465,0.0459066145570547,0.0637066198366022,0.0730991637335269,0.0868674690746555,0.083197646244146,0.0655835646195632,0.1095819376938492,0.0433958111199481,0.0533441317287643,0.1041724226544273,0.0396838633232192,0.0686317984382651,0.1026140622698142,0.0820499881390745,0.2593259320667624,0.2264079504123283,9.80440528684066,9.80440528684066,0.1541116453051977,0.1252726315576143,32.528682560419284,33.105326422002264,11.64496866809721,20.0,19.0,100.0,88.0,3.794864516984302,1
478.0,9.913786589603838,10.040464777296783,12.412992073872198,12.43012081174354,0.1833260066730663,0.0562593331365628,0.0451629830674778,0.0663121432485824,0.0731962160645363,0.087217530537397,0.0821930753635266,0.0639974732078791,0.108671101589192,0.0419880986042959,0.0518177186004587,0.0983774580697951,0.0408825776360319,0.067915289919582,0.0989839819709912,0.0802403094783663,0.2576071846450935,0.2242937272126713,9.805775206141524,9.805775206141524,0.154148925928295,0.1252042911762995,32.52862530733236,33.10498067951176,11.69533616585054,20.0,19.0,100.0,88.0,3.794864516984302,1
479.0,9.914218074174936,10.039054963491983,12.408076694964237,12.412377167613869,0.1763603729725527,0.0569042101533052,0.0453725505099325,0.0687905244370272,0.0741301206592745,0.0865674097636845,0.0799060582935393,0.0638289863536571,0.1076557845353129,0.0413638397691037,0.0506663705182622,0.1007072624885369,0.0429131891851448,0.0695036276087133,0.0961284661076266,0.0787753200333107,0.2554692825951543,0.2238808351077445,9.797519220987498,9.797519220987498,0.1541793551000621,0.1251319232937729,32.528450852997146,33.10466946510686,11.69533616585054,20.0,19.0,100.0,88.0,3.794864516984302,1
480.0,9.914149508332317,10.038505829558424,12.442440159454344,12.454147984027644,0.1715402093244767,0.0578009522510115,0.0466303057301619,0.0683440323831969,0.0753425265170705,0.0852409050876482,0.077416681727484,0.06564122478842,0.1072974366474989,0.0429099806990862,0.0506307681502663,0.1087061991533943,0.0445250561248386,0.072213309550546,0.0957168166875944,0.0785557350779625,0.2541670042637648,0.2253480215330082,9.785499290623347,9.785499290623347,0.1542064706980917,0.1250679888849462,32.52821442854919,33.104406094280925,11.69533616585054,20.0,19.0,100.0,88.0,3.794864516984302,1
481.0,9.913840494622209,10.037800985293597,12.48020145231386,12.504713687305747,0.1722574740893878,0.058938013312263,0.0479871069619111,0.0651158086686056,0.0756134952693801,0.0837244807941877,0.0758091910256991,0.0685535650975547,0.1075836930774804,0.0470595590923687,0.0517578165649058,0.1146218366584333,0.0445069682205574,0.0735489765268285,0.0968628293704733,0.0804240148866897,0.2547674467941055,0.2276599429045021,9.776439589902246,9.776439589902246,0.1542282114788799,0.124998476479192,32.52795455195899,33.104051283190934,11.749065597452814,20.0,19.0,100.0,88.0,3.794864516984302,1
482.0,9.913910634402503,10.03724760631164,12.509924144877022,12.532208217544676,0.1788135862981201,0.0601224840300486,0.048511704680666,0.0618827300833865,0.0746495019687541,0.0825468842726238,0.0760691815881002,0.0712425913469518,0.1074396427664907,0.0523103140680752,0.0533766991562899,0.1131222129130127,0.0430281044810741,0.0727086940120537,0.0983653361557738,0.08427498358419,0.2574465493839283,0.2296205784813491,9.771434023091912,9.771434023091912,0.1542494709497864,0.1249291099652242,32.52777707423583,33.10366162279899,11.749065597452814,20.0,19.0,100.0,88.0,3.794864516984302,1
483.0,9.914608672972452,10.037802985836684,12.53976077294394,12.544868921972428,0.187848072163898,0.06122823657835,0.0482906566983751,0.0605871318537715,0.0735363014476428,0.0819650386032916,0.0784687777367116,0.0734237870833856,0.1060017967769274,0.0560955759228109,0.0546079135325331,0.1063043860165656,0.0415240306584279,0.0712408312484472,0.1002707039004685,0.0880038558716869,0.2612751883195663,0.2309361595875802,9.768788704997885,9.768788704997885,0.1542637831858452,0.1248578228815669,32.52777784595941,33.103318646508406,11.749065597452814,20.0,19.0,100.0,88.0,3.794864516984302,1
484.0,9.915614229215466,10.039144448410852,12.571610980110687,12.563569572897496,0.1939605267622384,0.0620521296101911,0.0480093781801379,0.0606028996692709,0.0733199547034033,0.0820751904339626,0.0823029149552331,0.0754361413168212,0.1042110505425772,0.0579930442851257,0.0547605101655613,0.1016251680360599,0.0412611119293082,0.0711513237385689,0.1030862478022534,0.088994786150117,0.2646729298396352,0.2322244960887425,9.768293681975186,9.768293681975186,0.1542774505388055,0.1247885631614863,32.52767870439005,33.10290804428436,11.803200551596651,20.0,19.0,100.0,87.0,3.794864516984302,1
485.0,9.916600883378168,10.039670540750963,12.598866011199757,12.592503564126414,0.1937109211410915,0.062273737878509,0.0481098624965892,0.0600366590324826,0.0741177469947221,0.0828415942990253,0.086191506335865,0.0774528699236703,0.1037313391702485,0.0611444252865306,0.0537242135109346,0.1041085318263881,0.0422164011010463,0.072894291107294,0.105605415886458,0.0868582471157326,0.2663041747603128,0.2340776039659772,9.769967482092015,9.769967482092015,0.1542801028371602,0.1247216775597395,32.52756860243694,33.10256233644911,11.803200551596651,20.0,19.0,100.0,87.0,3.794864516984302,1
486.0,9.917020945624538,10.038919362223425,12.617902804056632,12.61983701866799,0.1881544889702772,0.0616281271710294,0.0484939693224671,0.0582184907987164,0.0754976823384436,0.0838674212066188,0.0886460496293815,0.0793560797238183,0.104241179120664,0.0675289466471661,0.052106149699452,0.1121978587736638,0.0434233480002049,0.0749909140006726,0.1055243974729081,0.0833737703147195,0.2657986282817605,0.2362024604617645,9.773041551099158,9.773041551099158,0.1542777891843295,0.1245325645126273,32.527389191018486,33.10225752819458,11.85474193036267,20.0,19.0,100.0,87.0,3.794864516984302,1
487.0,9.916444205451466,10.038126483419171,12.623309010672868,12.635133237078906,0.181365343455694,0.0599719107956042,0.048775297818113,0.0561380673077281,0.0767635156913942,0.0846515055285898,0.0893781856514603,0.0808617835898302,0.1040923294955916,0.0737555214977294,0.0508376350262412,0.1208927499720515,0.0438683842624652,0.0756921325787286,0.1029873944134272,0.0804592806887202,0.2637852280106014,0.2374644142278709,9.777015444450594,9.777015444450594,0.1542715497153855,0.1244419877528041,32.52716472616785,33.10193432030936,11.85474193036267,20.0,19.0,100.0,87.0,3.794864516984302,1
488.0,9.91553198038134,10.038112645402611,12.606356612013256,12.625542316863754,0.1768828718626464,0.0576153869894736,0.0486358675911795,0.0547682979664587,0.0772465450700852,0.084812504021802,0.0893512468198768,0.081455942099121,0.1032500712729026,0.0753304271479645,0.0506267132177748,0.1241823640117155,0.0428249483638723,0.0748832456343035,0.1004676056293868,0.0796090476195992,0.2613620344030237,0.2367559630171933,9.78225603811264,9.78225603811264,0.1542543479270555,0.1243839167841443,32.52691061372085,33.10152658051262,11.85474193036267,20.0,19.0,100.0,87.0,3.794864516984302,1
489.0,9.915390995161207,10.038253148590249,12.571361675494645,12.572932138186047,0.1755873652226949,0.0553573779143719,0.048161631362191,0.0543467642649055,0.0764768912378692,0.0843318976289491,0.0888851866866326,0.0801158519449817,0.1029557606642893,0.0726777685086235,0.0515794116766751,0.1171297830832309,0.0401809128596194,0.0735766653914473,0.0990163015618037,0.0815877979278034,0.2595678758150405,0.2339530106037703,9.788876497807076,9.788876497807076,0.1542401825657059,0.1243302519587778,32.52661351413086,33.10111594774264,11.900868999915094,20.0,20.0,100.0,87.0,3.794864516984302,1
490.0,9.91649793249368,10.03791398703757,12.534506269494608,12.486467196376417,0.1772286191646829,0.0540162826907326,0.047989100589166,0.0551805573695926,0.0742068137875309,0.0839836682308701,0.0874158178263923,0.0761180321035066,0.1033354760029387,0.0693553737860652,0.0531934448407426,0.1023335475976267,0.036908056971746,0.0722111347917892,0.0978587870753283,0.0851582249134761,0.2591409318027863,0.230220479482486,9.793177410268786,9.793177410268786,0.1542174269331271,0.1242871932703493,32.526403414551815,33.10065470615222,11.900868999915094,20.0,20.0,100.0,87.0,3.794864516984302,1
491.0,9.918576910756276,10.0378004393749,12.506179302864943,12.414550491360009,0.1823521701698222,0.0541699575460729,0.0485127784607559,0.058567714288621,0.0711606646485185,0.084510923179734,0.0848780608310733,0.0704710246905537,0.1033184596117625,0.0670802645443768,0.0548856792620034,0.0905516530513534,0.0346049591601005,0.0708647440299914,0.0968029588656276,0.0875649552180091,0.2603417111549064,0.2274012941883888,9.789850142006816,9.789850142006816,0.1541896578841227,0.1242432211544777,32.526138067592115,33.10034540627077,11.900868999915094,20.0,20.0,100.0,87.0,3.794864516984302,1
492.0,9.920445056828994,10.03823505884738,12.484220171779937,12.39288013919458,0.1894912668907065,0.0557960110918547,0.0490026288713456,0.0658785142519873,0.0688710642564942,0.0858680329169628,0.0820595562528686,0.0656197068002903,0.1028331620110958,0.0654259808742843,0.0562767055799745,0.0907384031089495,0.0344856928714608,0.0705466735133702,0.0960801374097803,0.0870208275953899,0.2627263617547272,0.2269351602149963,9.78089819463864,9.78089819463864,0.1541644150677896,0.1242065359934513,32.52582511532152,33.10003826598024,11.93907240298192,20.0,20.0,100.0,87.0,3.794864516984302,1
493.0,9.920561726032016,10.03763552792151,12.463313527703448,12.408331593135324,0.193302011701192,0.057814667448652,0.0484966722569225,0.0757755088412718,0.0678295944616394,0.0879056535608422,0.0803782326023555,0.0637615716043035,0.1037064881555622,0.0636693393279192,0.0568832248529578,0.1020708977361268,0.0367646382628271,0.0725005959138671,0.0954134508839911,0.0843327765437313,0.2652228223073798,0.2289417864930295,9.774601526124025,9.774601526124025,0.1541291536837489,0.1241686821871303,32.52551208507688,33.09968310599397,11.93907240298192,20.0,20.0,100.0,87.0,3.794864516984302,1
494.0,9.918652886370165,10.035720630632897,12.450686609243691,12.43631994915284,0.1906527723843368,0.0587215434035177,0.0473721832670051,0.083954555713939,0.0672427962246623,0.0904254921570212,0.0812133855489982,0.0652490179231546,0.1066575065693744,0.0613135200273932,0.0563684957561054,0.1156921302910954,0.0403081848982767,0.0759817207745531,0.095216025118334,0.0816318529408656,0.2667247078251648,0.2321540894850049,9.774816073530484,9.774816073530484,0.1540958334626679,0.1241292495985762,32.52535019761253,33.099301611664266,11.93907240298192,20.0,20.0,100.0,87.0,3.794864516984302,1
495.0,9.91621167463351,10.035099692055924,12.459551659927802,12.474413887449364,0.1850275271655829,0.0581676766862457,0.0472353539778797,0.0862416715908705,0.0666437028762506,0.0927568387207847,0.0843589997019555,0.0681990784857397,0.1090899942764178,0.058511583723844,0.055328345113082,0.1226990928528829,0.0430751947455758,0.0782196358918812,0.0966062467247638,0.079952986435779,0.2667119712946328,0.2348304199906623,9.77801101450289,9.77801101450289,0.1540621071020839,0.1240958666815417,32.5251613555502,33.09887879680932,11.96720120620181,20.0,20.0,100.0,87.0,3.794864516984302,1
496.0,9.915031413490569,10.036877708605395,12.489838336920515,12.51779208245094,0.180749150459777,0.0573027141693295,0.0491826950420209,0.0811600342983102,0.0664290974157617,0.0944039225531431,0.0877572272694057,0.0704264233620461,0.1084545957144513,0.0562498884889204,0.0550547752315622,0.1213739332663566,0.0437710338730791,0.0772942588137051,0.0994589487484525,0.0793671393945878,0.2653577683569114,0.2360087022291988,9.778637309359931,9.778637309359931,0.1540241279932686,0.1240663453809062,32.52480826437963,33.09852144862891,11.96720120620181,20.0,20.0,100.0,87.0,3.794864516984302,1
497.0,9.91529276444978,10.038891574372874,12.525239945065389,12.544370986039016,0.1775882272759428,0.0571463879677959,0.0522985460294292,0.0711996956804867,0.0670833721392632,0.0956324650781962,0.0894447553513557,0.0715930440400167,0.1057083083670545,0.0553748731551784,0.0562070476998126,0.1171702880505676,0.042792696237469,0.0742805722768119,0.1021370909310033,0.0799305399844366,0.2632303517038842,0.2359963102727638,9.774191792986338,9.774191792986338,0.1539878996924149,0.1240392529617161,32.52448377381293,33.098182595683255,11.96720120620181,20.0,20.0,100.0,87.0,3.794864516984302,1
498.0,9.915701851186869,10.03976528975843,12.539894530385409,12.55012180544979,0.17419063005279,0.0574226173257891,0.0544777188252535,0.0614958117016725,0.0682996313561428,0.0965623482621193,0.089315500151293,0.0728212385195728,0.1035013028263489,0.0558164154135547,0.0579461092337955,0.1163171547930806,0.0413821526817236,0.0719906337691211,0.1033665553593064,0.0807323193416002,0.2609880411242371,0.2356841074626894,9.769159189729342,9.769159189729342,0.1539524866834278,0.1240106515239501,32.52406217509756,33.097832922959874,11.983454583808545,20.0,20.0,100.0,86.0,3.794864516984302,1
499.0,9.91542897486495,10.040855084903866,12.51457810087637,12.56103746460069,0.172019092441942,0.0573812299614488,0.0548357135943775,0.0553833519469972,0.0689594873375508,0.0965463053481488,0.0886481855472489,0.0744948730811581,0.1029291812772629,0.0568706536149177,0.0586565269138182,0.1196979463531477,0.0406818825435039,0.0718554565718525,0.1033592931582776,0.080206370784648,0.2591653468344077,0.2355252767247908,9.77313276697422,9.77313276697422,0.1539112167168199,0.1239860170421202,32.52374062610771,33.09740458250224,11.983454583808545,20.0,20.0,100.0,86.0,3.794864516984302,1
500.0,9.91474054629291,10.043661197865774,12.461854729186738,12.590781850270766,0.1727726910737783,0.0568361106348482,0.054127335095608,0.0526254693765581,0.0684932240024405,0.0955761474723171,0.08837009831577,0.0753929466749969,0.1031584383882236,0.0570875333388757,0.0576320366733717,0.1232014538379602,0.0416936200649514,0.0729186612460129,0.1028887490447096,0.0780756319203776,0.2579919406357474,0.2352606897916596,9.788602802575136,9.788602802575136,0.1538768840069182,0.1239589716097671,32.5234062970242,33.09708627833465,11.986367332459364,21.0,20.0,100.0,86.0,3.794864516984302,1
501.0,9.914401454062146,10.047533789210895,12.419904519162303,12.616311917157129,0.1752435747624167,0.0559415693326304,0.0529155057846782,0.0519753053901304,0.067810374738089,0.0945589282099867,0.0883163673122966,0.0744584969247682,0.1030141124211836,0.0547921897937584,0.0557378616001243,0.1234678064880982,0.0446527117178312,0.0738604199597176,0.1023898675725089,0.0753188048702281,0.2573482484279949,0.2344592909503119,9.804262360647993,9.804262360647993,0.1538385152288864,0.1239356700618348,32.52305622375815,33.0968360050244,11.986367332459364,21.0,20.0,100.0,86.0,3.794864516984302,1
502.0,9.914938376458265,10.050361119928692,12.408125847732183,12.60571834675586,0.1771716172698687,0.0547923290235224,0.0508503478190418,0.0527819689601039,0.0681782344839236,0.0934817004090496,0.0880659246224782,0.0724236181989333,0.1025619779820979,0.0508534269832338,0.05429254049539,0.1213202018486363,0.0476407949203329,0.0743693866363665,0.1020809825880589,0.0730329195174186,0.2569560710153403,0.2330497481379877,9.80616105597695,9.80616105597695,0.1537975107051309,0.1239175420052309,32.52249944197868,33.09646797959095,11.986367332459364,21.0,20.0,100.0,86.0,3.794864516984302,1
503.0,9.916066383177814,10.051019170370864,12.411462792793293,12.557605123002674,0.1782802305973251,0.0536513140615416,0.0479208886171031,0.0545168711285952,0.069434583105829,0.0913748826505473,0.0877574542095426,0.0707799704351969,0.1033139798276749,0.0484431467908397,0.0537946493730177,0.1189124715858299,0.0476874050577618,0.0743558608105266,0.1015225843216095,0.0723091946810392,0.2566478328574654,0.2312728015762899,9.791347580393175,9.791347580393175,0.1537772379129205,0.1238958360492594,32.52192359470112,33.09602718072501,11.974840060122762,21.0,20.0,100.0,86.0,3.794864516984302,1
504.0,9.917389707313747,10.050309152815148,12.41356974722312,12.504905823620382,0.1798311159348144,0.0531604912143038,0.0454487992195132,0.0561207427196712,0.0699295653625377,0.0880921894317958,0.0875102458873813,0.0698515911206619,0.1064840358612143,0.0487362176960282,0.0539072792261833,0.11579463662776,0.0444094131868511,0.0735031114660678,0.0994692650985624,0.0737517913365428,0.2564793925532404,0.2293112599391839,9.769676066172854,9.769676066172854,0.1537439280833097,0.1238800300585227,32.52149235864483,33.09563479863365,11.974840060122762,21.0,20.0,100.0,86.0,3.794864516984302,1
505.0,9.918883162843706,10.04955883253645,12.4166511143432,12.482874417774497,0.1820533895641594,0.0538758851780096,0.0450913542406005,0.0561901802785488,0.0689926465433735,0.0847013127887661,0.086994676929473,0.0689287091698652,0.1113720631743781,0.0501142711147495,0.0542161980540126,0.1103999773649397,0.0406305854235793,0.0720295013521854,0.0955358330140475,0.0764794465605383,0.2566699785661215,0.227162454143338,9.755877167560676,9.755877167560676,0.1537117333196033,0.1238647004922617,32.52097989008657,33.09527063789381,11.974840060122762,21.0,20.0,100.0,86.0,3.794864516984302,1
506.0,9.919959533705043,10.049428609298706,12.421713095942232,12.501730313534589,0.1838614391374062,0.0553025142916949,0.0469457314536879,0.0542168256674016,0.068401689880064,0.0826260851494352,0.0864436918094177,0.0680177768165186,0.1154911224688488,0.0510078108608049,0.054535826692263,0.103634225954817,0.0388825406823471,0.0707298102793139,0.0911781376448489,0.0787447394707288,0.2574632179512833,0.2248020426530608,9.757904273838152,9.757904273838152,0.1536837015137035,0.1238494045199503,32.52041874043889,33.094929387020485,11.948247258356606,21.0,20.0,100.0,86.0,3.794864516984302,1
507.0,9.919493009226391,10.050066485549344,12.412876663040729,12.545200477182473,0.1851754657842729,0.0561839575419653,0.0493417094120518,0.0509972084014894,0.0697759005457178,0.0830002741946544,0.0867314029309281,0.0683161912411731,0.1160158672002253,0.0506959243438666,0.0547352773550479,0.0985608556194302,0.0391573344081595,0.0697416455716675,0.0884070130720947,0.079828546351171,0.2589315541393824,0.222372360992088,9.771587897684684,9.771587897684684,0.1536509735069453,0.1238377604051546,32.51996636936284,33.09449034264533,11.948247258356606,21.0,20.0,100.0,86.0,3.794864516984302,1
508.0,9.917242565254485,10.05170606818914,12.38797906338626,12.585492958706746,0.1873347497169574,0.0561176571851371,0.0503880013201029,0.0479990360130882,0.0722566249399937,0.0851065538810474,0.0874452423743836,0.0705802386831171,0.1121582464899213,0.0488127647506165,0.0549982000544231,0.0973042203874086,0.040069325665172,0.0682569593392003,0.0885554410475042,0.0805342891580355,0.2607952233075921,0.2201786229875265,9.786681989681664,9.786681989681664,0.1536208568511242,0.1238239846702367,32.51937270805411,33.094130154121416,11.948247258356606,21.0,20.0,100.0,86.0,3.794864516984302,1
509.0,9.914595273383034,10.054524362976926,12.38695944295422,12.596063017472204,0.1906606969630841,0.055796268133501,0.0494798538380129,0.0464800493727106,0.0740968295415823,0.0856542400658563,0.0864917538974853,0.0738250530046707,0.10615711656594,0.0462926281493166,0.0557914774858789,0.0986495858503527,0.0405199077615358,0.0658879773226463,0.091525834270599,0.0816618010643159,0.2625167085507555,0.2185442203931511,9.794442582584407,9.794442582584407,0.1534989949934047,0.1238120883754726,32.51889116713033,33.09380195859588,11.906623400042564,21.0,20.0,100.0,86.0,3.794864516984302,1
510.0,9.91395428237532,10.058197830683882,12.442956585189036,12.558014108481109,0.193579597695027,0.0558806770959697,0.0473916473313787,0.0470359898058137,0.0746958523864921,0.0825069633277854,0.0828261031772311,0.0762769783342071,0.1011001938742252,0.0453719136822455,0.056882803532403,0.09895897520591,0.0402209281162679,0.0637649172553612,0.0955508777480358,0.0825679094658638,0.263734686919541,0.2176947850501412,9.78998716606711,9.78998716606711,0.1534662277038538,0.1238037697731603,32.518401105442386,33.09356784602554,11.906623400042564,21.0,20.0,100.0,86.0,3.794864516984302,1
511.0,9.916601639481076,10.062254454346188,12.52430004238687,12.479819976115731,0.194877214732088,0.0567837367112044,0.045370345777998,0.0498040940382716,0.074511447152674,0.078192842992388,0.0784646885975087,0.077506840198059,0.0987681064732955,0.0473961220553146,0.0572801866066651,0.0963284631248459,0.0396577875660416,0.0637607539690212,0.0991979588932766,0.0821457158665995,0.2645682648119619,0.2177327805466001,9.773492029859032,9.773492029859032,0.1534456303701359,0.123797342273617,32.517787492225,33.09330694998611,11.906623400042564,21.0,20.0,100.0,86.0,3.794864516984302,1
512.0,9.920733454836238,10.065745824486203,12.568556395880426,12.408704948790485,0.1949575113886129,0.0591485900317089,0.0444650966970912,0.0538424483877786,0.0745974924655706,0.0766269089410922,0.0768725887626633,0.0785386862012714,0.0997417123100686,0.0515509929530324,0.0564978869172403,0.0922460504510672,0.0394655115805879,0.0662695024609465,0.1023570468713618,0.0809301845276083,0.265328386987731,0.2185876114192998,9.750635757349343,9.750635757349343,0.153435251733648,0.1237856868207413,32.517140477648866,33.09307639755193,11.850888332928434,21.0,20.0,100.0,86.0,3.794864516984302,1
513.0,9.92318071443851,10.06699267613652,12.559724145004184,12.390884638275676,0.1936091016532986,0.063551053470245,0.0450948272197048,0.0573186119490673,0.0760166860593823,0.077855828240929,0.0794875967707175,0.0794895060106039,0.1034085417951307,0.0560809378905022,0.0552176382551155,0.088550922937122,0.03960829945868,0.0693970897586796,0.1041927347504138,0.0806636306266969,0.2659560723898899,0.2199218312531916,9.729876167465806,9.729876167465806,0.1534191509524057,0.1237793744266495,32.51656738077695,33.09289683124985,11.850888332928434,21.0,20.0,100.0,86.0,3.794864516984302,1
514.0,9.922862997275434,10.065725247015962,12.546465372786676,12.428352368047328,0.1891836539161475,0.0695232764397952,0.0470907981201775,0.059649331341803,0.0781728361276714,0.0787156527480735,0.0841650234088664,0.0792136808867814,0.1075077624348564,0.0600241043556095,0.0547189885970052,0.0857679287737011,0.0395588135952086,0.0708785213281401,0.1032816069330572,0.0820841763707432,0.2659582528572406,0.2212131522017131,9.717442036434422,9.717442036434422,0.153374994745095,0.1237727492295599,32.51597783767675,33.09271034806586,11.850888332928434,21.0,20.0,100.0,86.0,3.794864516984302,1
515.0,9.921058357079383,10.063777693500644,12.576524211776183,12.48969126944777,0.1823021040873451,0.0749447575392483,0.0501965844066231,0.0616514843188793,0.0786828146583931,0.077605109902365,0.0873114368979546,0.0776368414101443,0.1094263336427116,0.0631704918349008,0.0555285404743636,0.0846690970802546,0.0393423687451179,0.0700129925105043,0.100004088449551,0.0842379576477982,0.2649561331565238,0.2220920035364401,9.71430269171289,9.71430269171289,0.1533447556265879,0.123769738630158,32.515357303124084,33.092430165596795,11.783041469256784,20.0,19.0,100.0,86.0,3.794864516984302,1
516.0,9.919081240131252,10.061903808592094,12.622407893982398,12.543058907538898,0.176864078910802,0.0768606941702681,0.0536800525759562,0.0634477513121085,0.0763191707609054,0.0765640009954665,0.0872038456722383,0.0760516146163779,0.1082433058984375,0.0647958857411935,0.0565924868617453,0.0866280333997812,0.0399515355277063,0.0676068105142864,0.0967714181684384,0.0854489692399228,0.2631324017991733,0.2226090785456882,9.718547230005449,9.718547230005449,0.153346040725519,0.1237619812225987,32.51481280008041,33.0922148327569,11.783041469256784,20.0,19.0,100.0,86.0,3.794864516984302,1
517.0,9.917016543912885,10.058110814942165,12.608813797611669,12.576741352207534,0.1750633069118303,0.0741458511917753,0.0559925234455693,0.0641534506537476,0.0725826693208991,0.0782212344342342,0.0851027330164064,0.0752640994200532,0.1053215133820501,0.063692632334371,0.0566086605089225,0.0923660750073408,0.0421123452078031,0.0649642692095942,0.0960783129853084,0.0847736498511139,0.2610397430590968,0.2230819763254906,9.727572134284122,9.727572134284122,0.1533455865448424,0.1237531954961276,32.51425365954604,33.092027002343485,11.706241757480694,20.0,19.0,100.0,86.0,3.794864516984302,1
518.0,9.91454070317534,10.050644175582272,12.511641982084871,12.60032964535482,0.1752568789552156,0.0690291787764869,0.0561476672257467,0.0632004112688917,0.0695353325475896,0.0823076736359631,0.0836592492307752,0.0750778495045941,0.1029644533221302,0.0598768092591807,0.0559161578009423,0.1007813700240761,0.044693458955383,0.0630224087068853,0.0981570523480114,0.0829423715975422,0.2590948564066652,0.2236239710735043,9.736945300726005,9.736945300726005,0.1533470167786418,0.1237446672135579,32.513643163084126,33.09186173146219,11.706241757480694,20.0,19.0,100.0,86.0,3.794864516984302,1
519.0,9.911639208124264,10.0412536620549,12.383546542613724,12.61946190140954,0.1751967234543704,0.064607613679418,0.0547412217430757,0.0613439826029911,0.0677413820104151,0.0863216574835516,0.0841993420308657,0.0748917963663331,0.1016462574454259,0.0554806837288865,0.0559966710000925,0.1083565960408406,0.0454029228442192,0.0617695576415832,0.1006548922321184,0.0815037275056267,0.2573026566608389,0.2238874782254106,9.74201561555516,9.74201561555516,0.1533486956144911,0.1237409486264277,32.51314106333135,33.09174637198709,11.706241757480694,20.0,19.0,100.0,86.0,3.794864516984302,1
520.0,9.908641343822,10.03390445085515,12.295929847099922,12.623061595347163,0.1741418829953572,0.0619985410723895,0.0529323371681818,0.0604956149971739,0.0668755091318048,0.0880513079309838,0.085468445325549,0.0741032001623505,0.0995722504779746,0.0530883299283091,0.0573259916651335,0.111584914481934,0.0434473943321989,0.0605631370169303,0.1013387448773227,0.0810840620249162,0.2554266323166088,0.2233657164284459,9.74200015132763,9.74200015132763,0.1533527893924588,0.1237307554896022,32.51277508823838,33.09164555696163,11.624704254924918,20.0,19.0,100.0,86.0,3.794864516984302,1
521.0,9.90680604556982,10.030896947996858,12.290532811871213,12.610105794741154,0.1724257652482747,0.0606637875476357,0.0514657614340802,0.0617230539671349,0.0667604751841015,0.0866568853800474,0.0853587934157031,0.0724899495947762,0.0960043308821318,0.0536336439630618,0.0587920014633121,0.1104918251072373,0.0404330365817216,0.0592722720704586,0.100286791793083,0.081184486632273,0.2533563720282583,0.2219462859660078,9.740657674939312,9.740657674939312,0.153363181282436,0.1237213259611586,32.51236149414751,33.09156332584314,11.624704254924918,20.0,19.0,100.0,86.0,3.794864516984302,1
522.0,9.90746109517075,10.031925782825498,12.359694808289266,12.595166744384468,0.1709987484101028,0.05978374918679,0.0505992599568807,0.0641411151174184,0.0672341584979552,0.0829080517625053,0.0832933072372776,0.0703042144905183,0.0928991255036068,0.0562964374160802,0.0593445600893946,0.1074977375612356,0.0383138365086904,0.0585706221411871,0.0985790447143321,0.0812357901447006,0.2513318056683691,0.2200942726820559,9.74282999736522,9.74282999736522,0.1533744453482685,0.1237145744902788,32.51212030276104,33.09154682943605,11.624704254924918,20.0,19.0,100.0,86.0,3.794864516984302,1
523.0,9.910061626131998,10.03530339376012,12.45613762924648,12.580562185286311,0.1707099223285968,0.0589879904475513,0.0501602845335644,0.0667270159714805,0.0680292073286152,0.0788030969842012,0.0802805266978548,0.0682365917352095,0.0923083190180925,0.0596285957519918,0.0592400598949239,0.1040715029122855,0.0376298171483275,0.0587891189944719,0.0962675684622987,0.0811482976233268,0.2498306174319774,0.2185263725171776,9.750475431003863,9.750475431003863,0.1533887136573325,0.1237095764511513,32.511901657327456,33.091506200659545,11.543383272211242,20.0,19.0,100.0,85.0,3.794864516984302,1
524.0,9.91290791896325,10.038120377327909,12.538326104155637,12.561936939268389,0.1715284844618322,0.0583590088478796,0.0498087587021987,0.0692714818852539,0.0689649884683531,0.0763427792494636,0.0778059475133041,0.0674532594027386,0.0941110984099436,0.0624834819928862,0.0593409129111016,0.10094847701568,0.0379174798039396,0.0593292328327186,0.0934339475018595,0.0810245521038595,0.2492028089337796,0.2177867087278526,9.76176013588263,9.76176013588263,0.153405754376747,0.123707959879445,32.51157214383792,33.09157712672196,11.543383272211242,20.0,19.0,100.0,85.0,3.794864516984302,1
525.0,9.914790493200558,10.037531723259878,12.598754959651949,12.55027329647496,0.1723542402936787,0.0578105830858341,0.0494694507902408,0.0715805272773203,0.0698230930539985,0.0764438570733765,0.077112894716982,0.0686160348684507,0.0966492966708913,0.0644157921452775,0.0599397019413971,0.0997355562177093,0.0385744133701258,0.0595177722982593,0.0915107658459663,0.080803079269521,0.2493778170684878,0.2180592579625499,9.77390039921312,9.77390039921312,0.153424541533269,0.1237079368888558,32.51138943815979,33.09161026363412,11.543383272211242,20.0,19.0,100.0,85.0,3.794864516984302,1
526.0,9.915145714947991,10.033536180318045,12.64442489368298,12.557972557749316,0.1715308262017444,0.0570806808217603,0.0493312605387973,0.073807622581818,0.0702434047710486,0.0785044457849709,0.0783257250428623,0.070744653472709,0.0979884863661754,0.0654188224732068,0.0605404653711383,0.1016942349314408,0.0391035500096662,0.059322007699248,0.0917055161988234,0.08039993550672,0.2499428287041818,0.2192363440332308,9.786413572129112,9.786413572129112,0.1534477331462141,0.1236996215426241,32.51117933048381,33.09162923660232,11.467466863150966,20.0,19.0,100.0,85.0,3.794864516984302,1
527.0,9.914205103510104,10.029263089277851,12.669477841504609,12.57724006216104,0.168971977181884,0.0563896545676416,0.0493709676226634,0.075850803700022,0.0700253279814018,0.080953225774454,0.0804083353651177,0.0720044331572267,0.0971487451002705,0.0655639017584365,0.0605154156666735,0.1056715317612826,0.0393616718262874,0.0593076215048833,0.0933608274815411,0.0799193738347757,0.2505624322747909,0.2211756606882295,9.800514195552376,9.800514195552376,0.1534682682062839,0.1236986429207711,32.5109485282255,33.09164716723729,11.467466863150966,20.0,19.0,100.0,85.0,3.794864516984302,1
528.0,9.912922983307531,10.027875742555212,12.654539372581572,12.582315899914176,0.1671532051446073,0.0560907758274495,0.0491553653952337,0.0756800090266696,0.0694386105763752,0.0826266775600984,0.0823581292355167,0.0714966827901133,0.0953812859835119,0.0654106336522613,0.0600782627554121,0.1087091405054566,0.0397969537053159,0.0603046066568888,0.0951324074461749,0.0799665604008507,0.2513864414865438,0.2239953811521484,9.815400162675814,9.815400162675814,0.1534894801384564,0.123697860124486,32.51081702685895,33.091743152814324,11.467466863150966,20.0,19.0,100.0,85.0,3.794864516984302,1
529.0,9.912332204918414,10.02929554266007,12.593388570489756,12.547830776023368,0.1683674465392476,0.0558845553574711,0.0483079975577862,0.0717132571546484,0.0690584997213215,0.083586323538925,0.0841918407916399,0.0700934137960298,0.0950510256234729,0.0660481669632357,0.060599195229034,0.1078788222406704,0.0410311280357777,0.0628040161044633,0.097670187852342,0.0824824555610096,0.2530848853820285,0.2280768361008128,9.826455917867657,9.826455917867657,0.1535096727776704,0.1236928356826706,32.51079967826725,33.091779372808624,11.40176208067675,20.0,19.0,100.0,85.0,3.794864516984302,1
530.0,9.913432353379308,10.03115290619792,12.518442615041907,12.475461240273356,0.1726532316413717,0.0553811873214003,0.0469223806557693,0.0663899574915631,0.0695773714824336,0.0845919208708759,0.0867856130370433,0.0697693090170192,0.0967313010088264,0.0674904126140285,0.0633268903819523,0.1016569200680953,0.0429594130661167,0.0666735176718403,0.103770981905345,0.0899249616100432,0.256416409391111,0.2335816784026638,9.82863773197822,9.82863773197822,0.1535390083885569,0.1236920487999854,32.51088327751675,33.09175500476973,11.40176208067675,20.0,19.0,100.0,85.0,3.794864516984302,1
531.0,9.916272618716256,10.03289634870164,12.47374629153469,12.399391531301914,0.1791246925712454,0.0549965708136133,0.0454321094166239,0.0639114398837777,0.0717221014667717,0.0861777313448843,0.0902925558732518,0.0718106539867905,0.0988038763956015,0.0681357093692647,0.0677057148116909,0.0923286770183533,0.0447545154695159,0.0711765471891651,0.1143668003202027,0.1009495075466001,0.2616034143028,0.2398853647899798,9.82212537003241,9.82212537003241,0.1535635496585773,0.1236881075094149,32.51079018322115,33.09176456300016,11.40176208067675,20.0,19.0,100.0,85.0,3.794864516984302,1
532.0,9.91896899016653,10.034845161126515,12.472380055600814,12.359839436754434,0.1867531379726624,0.0553596657289687,0.0445783001419866,0.0654533857029667,0.0752827638544612,0.0881130726822558,0.0931289271250931,0.0756280321522416,0.100044966907722,0.0671399446691872,0.0714946626269077,0.0867357097552055,0.0459246419501029,0.0749042938223461,0.1254019708957215,0.1083410114596739,0.2679332039781177,0.2454958342017223,9.812815026198752,9.812815026198752,0.153583297642036,0.1236842029981093,32.51068861036772,33.09179213486107,11.350087874400154,20.0,18.0,100.0,85.0,3.794864516984302,1
533.0,9.919473254679255,10.034482684252994,12.48991664531578,12.370737841826044,0.1937454586587752,0.0563904435769277,0.0454018432904945,0.0682315398170953,0.078587954472539,0.0895472717065112,0.0940000094215529,0.079563013532477,0.1012098199623051,0.0656393999620359,0.0729518314273039,0.0904943661454316,0.0464076871644165,0.0766087376450693,0.1311062119295782,0.1063155612162409,0.2740103264775904,0.2487302137163445,9.804490148218065,9.804490148218065,0.1535979032318779,0.1236840363003874,32.510643552268185,33.09178736743089,11.350087874400154,20.0,18.0,100.0,85.0,3.794864516984302,1
534.0,9.91775841391356,10.029100993642135,12.491117325662351,12.414551557124607,0.1981912277798785,0.0577409093414702,0.0481837119429105,0.0684861690558994,0.0804458440897132,0.0901148024137964,0.0937605854999455,0.0821782258220235,0.1029952609236065,0.0645233867799288,0.0726505497657003,0.1009508127037476,0.0458417888771158,0.0760262475657903,0.1292767871980049,0.0978273431549301,0.2784812131275806,0.2485172784522677,9.793832372928296,9.793832372928296,0.1536153296689307,0.1236817565593489,32.51047896236796,33.09177839209214,11.350087874400154,20.0,18.0,100.0,85.0,3.794864516984302,1
535.0,9.915375895622647,10.02100726745436,12.458962653119183,12.463624957762086,0.1994749358361188,0.0592983186447522,0.0513896464634738,0.0651381510951774,0.0816554534000109,0.0901798994595943,0.0933211240775915,0.0826487037792236,0.1037805654408409,0.0629176274483849,0.0725051371423884,0.1093404600385341,0.0440193225186726,0.0734436165328385,0.1215590964128931,0.0896523322193352,0.2806799821393059,0.2448566154233198,9.778198904032635,9.778198904032635,0.1536276371287025,0.1236802890705314,32.51040383668911,33.09187761683204,11.314800213358136,20.0,18.0,100.0,85.0,3.794864516984302,1
536.0,9.913896194102122,10.015447163765318,12.406275903839454,12.5014414847862,0.1990641280587211,0.0608313759678566,0.0531001074325839,0.0603971756016564,0.0831510601964204,0.0896667574220849,0.09167961532395,0.0813151886579077,0.1017399512903129,0.0597355116012023,0.0731863447027606,0.1105705294478835,0.0415361726991748,0.0695487352577822,0.1109331117074438,0.0843920225320226,0.2807324306166038,0.2389565287799581,9.76369733604739,9.76369733604739,0.1536425365897972,0.12366938619466,32.51034684107484,33.0919035879049,11.314800213358136,20.0,18.0,100.0,85.0,3.794864516984302,1
537.0,9.913556393709474,10.014444384887996,12.356786956728495,12.525337301213757,0.1990724830568785,0.0620504483618802,0.0532415721815169,0.0564711542653225,0.0841419588431532,0.0881096888624636,0.0882299266181718,0.0799141650556921,0.0980011111498542,0.055560523945379,0.0733219635267486,0.1074557612012289,0.0394169728468684,0.06574451822457,0.100882641623927,0.0814872498818827,0.2791807752806831,0.2330374431863446,9.759772294478775,9.759772294478775,0.1536554363061974,0.123663155936326,32.51037464576987,33.09183122414962,11.314800213358136,20.0,18.0,100.0,85.0,3.794864516984302,1
538.0,9.913566630747288,10.016115135604435,12.331770594322998,12.53881673965314,0.198650869897818,0.0630542514618047,0.0532181798187735,0.0536218566026473,0.0836322045292486,0.0853985262406918,0.0849925307430924,0.0801258171140846,0.0958504729824045,0.0525413143648706,0.0717342741823474,0.1044464445873201,0.0384123697420352,0.0634776468783915,0.0951335810172118,0.0820942843806763,0.2765960984214786,0.2294807018944796,9.76797329092463,9.76797329092463,0.1536656773460544,0.1236564642300901,32.51049772650481,33.09182955945901,11.296548349133092,20.0,18.0,100.0,85.0,3.794864516984302,1
539.0,9.914263193706068,10.018713800398178,12.356565402642904,12.53721176580124,0.1946122767204781,0.064157423272312,0.0540687174250491,0.0516913191092146,0.0822975343670119,0.0814374235631146,0.0846408333430984,0.0821346845747225,0.097775646415366,0.0523711924407517,0.0697299658526744,0.1010776131430418,0.0385188336484632,0.0632774597223255,0.0960030758972615,0.089120817024747,0.2735294769498241,0.2294534410370746,9.780650248198157,9.780650248198157,0.1536719812019033,0.123652057849568,32.51068339886004,33.09182069657429,11.296548349133092,20.0,18.0,100.0,85.0,3.794864516984302,1
540.0,9.916717265326746,10.022422857324475,12.437050193869162,12.506340917819534,0.1872727535769534,0.0657325898881633,0.0557060834806376,0.0505807420685663,0.0813839647017984,0.0763451070741104,0.0872390605866481,0.0851333049077421,0.103110661992878,0.0543096497756917,0.0693678097993513,0.0944316489261822,0.0391406198876482,0.0643664256405455,0.1019587266163312,0.1025024898347195,0.2706365296695145,0.2319873008209375,9.790193219605246,9.790193219605246,0.153676198415109,0.123641452893816,32.51098680248284,33.09168106494718,11.296548349133092,20.0,18.0,100.0,85.0,3.794864516984302,1
541.0,9.920031789653043,10.027637454052602,12.526163162833909,12.450458618517048,0.1815974100817912,0.0681021908761229,0.0573077698469568,0.0497207989383975,0.0809155394128835,0.0714660979244644,0.0899304367795358,0.088197257199858,0.1078971074740123,0.0559811944809596,0.0701392029565171,0.08560555554324,0.0397034686209083,0.065126348741092,0.1074655194277713,0.1161226350422097,0.2685606092735231,0.234489308376574,9.794015108947782,9.794015108947782,0.1536768186742431,0.1236318309773593,32.51122324996653,33.09160646265415,11.294308848235003,20.0,18.0,100.0,85.0,3.794864516984302,1
542.0,9.922052712511844,10.033535830209262,12.563519804152447,12.406971866833338,0.1808145627024736,0.0704304462054341,0.0581310411347645,0.0493066889390981,0.080301393812869,0.0689127068486374,0.0902303938612662,0.0898529891638896,0.1084233512109041,0.0559467127200203,0.0697670812839828,0.0795752178325907,0.0398442674858325,0.0646950615094313,0.1078737147605184,0.1216216643127448,0.2675546811981257,0.2345227247436115,9.792314673197827,9.792314673197827,0.1536793693186221,0.1236184383224139,32.51137391542088,33.09165449498963,11.294308848235003,20.0,18.0,100.0,85.0,3.794864516984302,1
543.0,9.921827668341338,10.038987803977838,12.554353259014372,12.4166928765368,0.1833659348974839,0.0705798368200102,0.0581662650274485,0.0503093652307226,0.0797547807213939,0.0697309619242335,0.088882685393664,0.0885607568579444,0.1050827388622083,0.0544778092229988,0.0675378758569507,0.0787152609506042,0.0395451965832622,0.0637228433875172,0.1048224249102193,0.1159253956738393,0.2672465863659201,0.2314602484955768,9.787506169249088,9.787506169249088,0.1536832765923562,0.123614213571511,32.51139619187108,33.09161268766763,11.294308848235003,20.0,18.0,100.0,85.0,3.794864516984302,1
544.0,9.91951860312932,10.043484331818163,12.554666413358452,12.47916081586654,0.1865962014934974,0.0675667073877563,0.0578834114216646,0.0525591305799599,0.0797433929449192,0.0726319047411066,0.0879566033844922,0.0847985436627439,0.1012515334332182,0.0525569241130933,0.0647488023698363,0.0803873167845722,0.0393683151858242,0.0629457176638946,0.1033884734769692,0.1033400307755378,0.2667881385377642,0.2266344862471582,9.782340497227596,9.782340497227596,0.1536787037400103,0.1236093025631416,32.511422045702005,33.09137949453008,11.305680102641464,20.0,18.0,100.0,85.0,3.794864516984302,1
545.0,9.916183538728626,10.04644981931059,12.580686934115162,12.54340043425129,0.1883572202837929,0.0628469487838062,0.0573560551172163,0.0550804365110606,0.079784006137237,0.0748863554498057,0.0876181456510727,0.0808629214545217,0.0992685867608101,0.0509764377868872,0.0626570518579938,0.081743432021805,0.0399123994019592,0.0624254366097375,0.1047485974358207,0.0906108690377725,0.2652763541066019,0.2221361089979405,9.777295991244534,9.777295991244534,0.1536738320910491,0.1235991719156518,32.51157788466387,33.091205857303045,11.305680102641464,20.0,18.0,100.0,85.0,3.794864516984302,1
546.0,9.914048750755873,10.047174928029522,12.593707419854058,12.55439856164732,0.1865476300164385,0.058319044960283,0.0564929828639382,0.0576571692911045,0.0786324082685252,0.0750565945062592,0.0866638666927648,0.0782135589493392,0.099429528993527,0.0500447409146755,0.0615130705598567,0.0830150410811824,0.0412837090994336,0.0625580750898239,0.1058510921142484,0.0819464097676214,0.2622661645222738,0.2194571272190691,9.77470827578902,9.77470827578902,0.1536622498782855,0.1235956369194097,32.51167556116799,33.09103432574315,11.305680102641464,20.0,18.0,100.0,85.0,3.794864516984302,1
547.0,9.914538150112383,10.045164306468962,12.55941137924526,12.50526002440082,0.181270366020376,0.0547672493472703,0.0558516401923572,0.0597017680068919,0.0756512796791887,0.074051009653882,0.0844207626457168,0.0765996325008696,0.101481643456613,0.0498490351076615,0.0610429575113959,0.0858346284891763,0.0433639289022865,0.0641606982135459,0.1045103556227046,0.0777996640141405,0.258165978473572,0.2189498753785343,9.779792937399847,9.779792937399847,0.1536488688334016,0.1235863842050092,32.51189118898294,33.09076084744369,11.327362658925225,20.0,18.0,100.0,85.0,3.794864516984302,1
548.0,9.916278645810053,10.040217859921414,12.48371897317433,12.440938200985151,0.1756522787448644,0.0525448703000646,0.0557041779492528,0.059383155740162,0.072284000727923,0.0735344375835328,0.0813005962653943,0.0754544417365098,0.1045266052111972,0.0503482855406308,0.0608400705012353,0.0916719865097168,0.0456700281202694,0.0672236177952793,0.1009543815635157,0.0760582095255459,0.2541911585328513,0.2200181494742296,9.792549011728454,9.792549011728454,0.1536300946361508,0.12357961391896,32.512073289271704,33.090529486326155,11.327362658925225,20.0,18.0,100.0,85.0,3.794864516984302,1
549.0,9.916727156980013,10.034024596929362,12.40779092954616,12.41668023571746,0.1731257222305845,0.0518653479471914,0.0550475408394574,0.056288376098164,0.0712501107736747,0.0745462213035434,0.0784008508333166,0.0746383021594759,0.1071089085634826,0.051114063578854,0.0605672368356906,0.1000745207716416,0.047042064956502,0.0703799993545809,0.0959434072523338,0.0745720834745334,0.2517637005016582,0.2216239953283247,9.805135362735458,9.805135362735458,0.1536066338789342,0.1235684455691245,32.51217896436403,33.0902982098021,11.327362658925225,20.0,18.0,100.0,85.0,3.794864516984302,1
550.0,9.915646200032407,10.030219520540122,12.37242202329614,12.441646009323469,0.1750365712459579,0.0521685581948555,0.0530165301015182,0.0527998535647121,0.0733909675113261,0.0767886826511209,0.0764437738555281,0.0737103067834211,0.1092131784058057,0.0513665342738821,0.0603450088020484,0.1066633937933587,0.0465015891568607,0.0720292963288105,0.0904620149974812,0.0731752352782015,0.2517488015125893,0.2228679772714569,9.808920585386172,9.808920585386172,0.1535813902598227,0.1235642536846742,32.512295733126294,33.09003228636435,11.355715278764546,20.0,18.0,100.0,85.0,3.794864516984302,1
551.0,9.915357270358568,10.030744102648107,12.378812311418912,12.47022575072367,0.1804579667149477,0.0526893123515307,0.0503554609466619,0.0512127068096211,0.076604631971365,0.0788868102246745,0.0756997918364294,0.0720210336619243,0.1119383896614587,0.0505059159854347,0.0603910452335518,0.1073930720523709,0.0442038905024755,0.0719322479801326,0.0865244353155409,0.0728894945242691,0.2540913473824202,0.2233917342025251,9.801484830295257,9.801484830295257,0.1535483003734392,0.1235546971503987,32.51236784991624,33.08969306931736,11.355715278764546,20.0,18.0,100.0,85.0,3.794864516984302,1
552.0,9.91699847255819,10.033792812185316,12.396210825597304,12.46221485473454,0.1871916239698664,0.0535652982961656,0.0486219792720565,0.0517025590133018,0.0784736158722862,0.0801810116730432,0.0766730379295833,0.070057383687456,0.1148929416716923,0.0489832706160025,0.0600322776293959,0.1045236815430195,0.0412402432503952,0.0712899367936042,0.0859665357335021,0.0738192450530322,0.2580151636140346,0.2233027894329984,9.789392647751525,9.789392647751525,0.1535075446842655,0.1235467065288451,32.51243274542301,33.08934377857254,11.355715278764546,20.0,18.0,100.0,85.0,3.794864516984302,1
553.0,9.919057251546922,10.0363091301244,12.411347274001235,12.430294379410428,0.1927527608922718,0.0553510881941885,0.0486422333765949,0.0539058371930879,0.0785139798244404,0.0810172757630586,0.0794214248290044,0.0692829475988232,0.1158291431811479,0.0484368891447,0.0585823935798657,0.1030751435628892,0.0388128406268634,0.071139743225088,0.0885682124301983,0.0752663678401427,0.2624881511230064,0.2227189591864766,9.783757474198811,9.783757474198811,0.1534663911227584,0.1235361305099549,32.51241228966126,33.089003704130754,11.3872710222605,20.0,18.0,100.0,85.0,3.794864516984302,1
554.0,9.920088667628292,10.037492832539964,12.443360112245196,12.41608263868876,0.1959396923398194,0.0578066555665004,0.0498896704751268,0.0579943831793963,0.0774168989794598,0.0813660319937474,0.0827405641590135,0.0699287545013807,0.1125144569906542,0.0501136634273755,0.057084664919186,0.1029402847166954,0.03744139427008,0.0709078221197524,0.0922471923683816,0.0772439863284153,0.266619614259746,0.2215166391714432,9.7894465723579,9.7894465723579,0.153415717574898,0.1235331532297312,32.512361704633,33.088642829215324,11.3872710222605,20.0,18.0,100.0,85.0,3.794864516984302,1
555.0,9.919947604082168,10.039134421147011,12.501809509082443,12.438767505779095,0.1978559983850976,0.0598801853205582,0.0510104154409623,0.0628939302964981,0.0760906067655412,0.0806490589658442,0.084933341190628,0.0700568652006596,0.1050843739098228,0.0534421510201007,0.057235807582657,0.0997341230423253,0.0367469103055241,0.0689933718706369,0.0951095295424624,0.0803624353048771,0.2698710670070129,0.2196247827787633,9.799443994277928,9.799443994277928,0.153361921108764,0.1235267903894575,32.51234072255603,33.08826844055626,11.4191203628191,20.0,18.0,100.0,85.0,3.794864516984302,1
556.0,9.918987027521,10.042603835765856,12.567105916042204,12.48766849574215,0.2001868344516505,0.0607057496142915,0.0510574755281096,0.0659488306290336,0.0759528724338802,0.0787283071121962,0.0851642576032282,0.0684450734624052,0.0968619375365198,0.0566349437208455,0.0589266850021002,0.0930677110584897,0.0360431992590424,0.0651025713137075,0.0972477303740192,0.0841225411387631,0.2720566903569925,0.2174177816272139,9.802466168511335,9.802466168511335,0.1533011129298231,0.1235224706254629,32.51230187815745,33.087877465225034,11.4191203628191,20.0,18.0,100.0,85.0,3.794864516984302,1
557.0,9.917751742085771,10.04722502968092,12.619163933745812,12.553963725699594,0.2030764763588286,0.060362837661231,0.0502183757463377,0.065953051131792,0.077801439456336,0.076519740192414,0.083925247020716,0.0671778099002842,0.0916201408156451,0.0581330595152575,0.0605032831042861,0.0885196854569509,0.0351650179180029,0.06120455326344,0.0998194438204045,0.0860971915544306,0.2731448363512744,0.2155741327679892,9.796311129148426,9.796311129148426,0.1532327775300069,0.123514807961014,32.51224892070861,33.08747754830197,11.4191203628191,20.0,18.0,100.0,85.0,3.794864516984302,1
558.0,9.916407508074712,10.051870356521418,12.645678799234291,12.629524402938914,0.204750192069261,0.0595118826615691,0.0492948628528482,0.0643213628762823,0.0801577957921098,0.0751748942318859,0.0822548923305911,0.0691420987716785,0.0904240400832507,0.0574112243478361,0.0609296973682502,0.0898399821364788,0.0346875201207969,0.0594102157798125,0.102270252062573,0.0840919891321879,0.2729889558896407,0.214561247230435,9.78939067918622,9.78939067918622,0.1531645922793721,0.1235094992450483,32.51218543253199,33.08704205086476,11.449110103472936,20.0,18.0,100.0,85.0,3.794864516984302,1
559.0,9.914990250208067,10.055714330581592,12.629528544962046,12.68192962608254,0.2030147613489625,0.0584995707498249,0.0488782115807836,0.0628310204773553,0.0804192602455616,0.0750991828611912,0.0808851352586995,0.0742141672887221,0.0920298250641283,0.0550500921557512,0.0604323151055813,0.0945554234114781,0.0352884085118131,0.0597868103343717,0.1029368963866896,0.0790681151651441,0.271324162451894,0.2143206006439503,9.788833520822042,9.788833520822042,0.1530895742194396,0.1235068444046805,32.512057203131974,33.086677454178826,11.449110103472936,20.0,18.0,100.0,85.0,3.794864516984302,1
560.0,9.914019314582264,10.057925950889148,12.57317496276579,12.686216558047024,0.1978079972584956,0.0574273065155833,0.0490433109350675,0.0615573236446935,0.0777236375805652,0.0759584264246101,0.0799867574355668,0.0789834923957779,0.0951444924860567,0.0523366943990149,0.0596490309666875,0.0985733412730964,0.0368564445485375,0.0609559138177011,0.1020921283695351,0.0744087002435742,0.2680904912416333,0.2143985106761357,9.793788980458162,9.793788980458162,0.1530105234329913,0.123505077088909,32.51180852700145,33.0862205865352,11.449110103472936,20.0,18.0,100.0,85.0,3.794864516984302,1
