Time (s),Interpolated Values_Waist Acceleration,Interpolated Values_Chest Acceleration,Interpolated Values_Left Ankle Acceleration,Interpolated Values_right Ankle Acceleration,Interpolated_Left Leg,Interpolated_Left Leg.1,Interpolated_Left Leg.2,Interpolated_Left Leg.3,Interpolated_Left Leg.4,Interpolated_Left Leg.5,Interpolated_Left Leg.6,Interpolated_Left Leg.7,Interpolated_Right Leg,Interpolated_Right Leg.1,Interpolated_Right Leg.2,Interpolated_Right Leg.3,Interpolated_Right Leg.4,Interpolated_Right Leg.5,Interpolated_Right Leg.6,Interpolated_Right Leg.7,Interpolated_gaussian_EMG_magnitude_left,Interpolated_gaussian_EMG_magnitude_right,Interpolated Values_left wrist Acceleration,Interpolated Values_right wrist Acceleration,Interpolated Values_left wrist electrodermal,Interpolated Values_right wrist electrodermal,Interpolated Values_left wrist Tempreture,Interpolated Values_right wrist Tempreture,Interpolated Values_VO2,Interpolated Values_Breath Frequency,Interpolated Values_Minute Ventilation,Interpolated Values_SpO2,Interpolated Values_Heart Rate,Interpolated Values_Enregy expendiures,Activity Code
360.0078122,9.83549298067148,9.91531403677888,9.76194708189169,9.925540217900446,0.0275378986674714,0.0493009579702872,0.018389372877336,0.0122022442387862,0.0192868815820619,0.0260527395726257,0.0715705869705125,0.010455097242271,0.0536581962900822,0.0636350553442376,0.0380978626659011,0.0278605533827376,0.0266731245336339,0.0077155480432909,0.0088977615289212,0.0353907248320612,0.100366721815463,0.1122990221170624,9.797712830539083,9.797712830539083,0.4449947028572503,0.8472565384615404,29.04844120440547,29.03921647685096,7.077885232483652,22.0,12.0,99.0,78.0,3.762365538089989,2.0
361.0078122,9.835487652989377,9.915254331389756,9.761548059532592,9.925350676234132,0.0280811486863937,0.0476035238414619,0.0176505418531604,0.0118020906005923,0.0191489212771346,0.0283560187766342,0.0715443913878603,0.0093043679431238,0.0541943140444969,0.0559599807568868,0.0350587856204915,0.0265037110091651,0.0265012236903347,0.0074294974229721,0.0078473638506354,0.0217566534808326,0.0987671304426514,0.1049171965232889,9.797702001091402,9.797702001091402,0.4452006584052556,0.8477061865123512,29.04711716497212,29.037180718225063,7.077885232483652,22.0,12.0,99.0,78.0,3.762365538089989,2.0
362.0078122,9.836420161649055,9.915136045910858,9.761573569282792,9.925648836255114,0.0282077834749793,0.0468135642211485,0.0173691467406357,0.0115357835497529,0.0190916547034441,0.026436322262861,0.0712558626933849,0.0089144075079544,0.0556499487505726,0.0539928506655343,0.0335619296592147,0.0272735809882644,0.0272176130490134,0.0074253153794602,0.0075556986477232,0.0152378138566891,0.0969293285943073,0.1023832588652307,9.79898505297975,9.79898505297975,0.4454108216520758,0.8481524551201164,29.045819058650423,29.035158347093777,7.077885232483652,22.0,12.0,99.0,78.0,3.762365538089989,2.0
363.0078122,9.838629046730516,9.915144854834674,9.761885851932831,9.926502438842904,0.0279039288073201,0.0463335262907365,0.0172713529318456,0.0113454288357572,0.0192083731543479,0.0217197618993868,0.0694511997495433,0.008849017866707,0.0579173497058205,0.0568258405049585,0.0334382470157753,0.0320696242199763,0.0290111370621922,0.0076908084019101,0.0084155665279072,0.0133963813648547,0.0948416466216267,0.1048596946591212,9.801054454695825,9.801054454695825,0.4456125932110474,0.8485949935372721,29.04444877549797,29.03321496626751,7.077885232483652,22.0,12.0,99.0,78.0,3.762365538089989,2.0
364.0078122,9.84193334794478,9.915144400613904,9.76407527497319,9.930189566083026,0.0273068766401837,0.0465023179799055,0.0173708271207822,0.0113771621323571,0.0196801719915141,0.0172476737378174,0.0648966811273316,0.0090248685543215,0.0603143560054779,0.0658159251454159,0.0341197548394616,0.0385631218883173,0.0314310375103006,0.0087338146233101,0.0111583878534123,0.0135378976665804,0.0933165707341254,0.1107689835746234,9.803441705940552,9.803441705940552,0.445804150907001,0.8490296865154382,29.043175284103047,29.031347047338123,7.077885232483652,22.0,12.0,99.0,78.0,3.762365538089989,2.0
365.0078122,9.845643628198426,9.914498909660251,9.77636147781333,9.94571409562009,0.0267289385509931,0.0485606435023222,0.0179605232592223,0.0122946452083918,0.0207952802223917,0.0151321195246285,0.0583424044715497,0.0098066952676027,0.0618381098953231,0.0789986574545383,0.0342721840013955,0.0410690544024513,0.0336362465925861,0.0119544955580433,0.0160251308419874,0.0147802090389866,0.0940671420730726,0.1178379998753878,9.80673364372614,9.80673364372614,0.4459864582114675,0.8494465675980373,29.04192288001018,29.029248833417007,7.132096615431005,22.0,12.0,99.0,78.0,3.762365538089989,2.0
366.0078122,9.849631801122555,9.91365484661684,9.824931293588898,9.996072606188848,0.0266588522700217,0.0544090327108057,0.0195800830804417,0.0152352828120009,0.0229161275131579,0.0166610128360535,0.0531225569343538,0.0124605202904273,0.0625571137075333,0.086576626957286,0.0324047584111693,0.0373154507053056,0.035818653282814,0.0196904405122555,0.022225196947704,0.0179144266585243,0.0990543349975982,0.1245048962060837,9.813244565677843,9.813244565677843,0.4461669560455763,0.8498551442224698,29.04064561815517,29.02716458844381,7.132096615431005,22.0,12.0,99.0,78.0,3.762365538089989,2.0
367.0078122,9.854612632377805,9.916229859729206,9.961146316079605,10.119664850272356,0.0275009635948904,0.064586890323818,0.0224965640285646,0.0208000812649435,0.0261252945518667,0.0228958367255965,0.0535174196650382,0.0187689596970826,0.0637045861871714,0.0798196584884408,0.0288314300191105,0.0316212367190063,0.0399860912195342,0.0336529143895288,0.0288722382699466,0.0244428062723416,0.1093449761736866,0.1310182808205719,9.82808074639354,9.82808074639354,0.4463341288487017,0.8502456275862709,29.039371461074627,29.02518501818733,7.132096615431005,22.0,12.0,99.0,78.0,3.762365538089989,2.0
368.0078122,9.860662910092422,9.927587372530637,10.233670037239364,10.358442086678574,0.0291460327623896,0.0758639763058032,0.0261341984175386,0.0276707318535344,0.0302080522264874,0.0332933028778746,0.061021446089717,0.0295548274234954,0.0658404319071488,0.0632966606735011,0.0257537352482691,0.0291040934313857,0.0478558848512853,0.0521226205017216,0.0359361550880862,0.0351196709200093,0.1243392770151684,0.1390065043047775,9.859348246238312,9.859348246238312,0.4464950730723317,0.8506313997255524,29.03808969768554,29.0231792059036,7.237995839720781,22.0,13.0,99.0,78.0,3.762365538089989,2.0
369.0078122,9.866560190407816,9.950785138791945,10.636089317180645,10.740509652069852,0.0309662292602943,0.0835874568626103,0.0297317855954863,0.0333729041009163,0.0352997617658582,0.0447777413029465,0.0717887305622429,0.0445370234705045,0.0683880811367491,0.0491483920284229,0.0248196164351693,0.0308301432633742,0.0581411650918785,0.0696537937017345,0.0433859371862591,0.0491582224624633,0.1420578642122231,0.1496185462073317,9.913440227208874,9.913440227208874,0.4466494675696771,0.8510086781306954,29.036641981777304,29.0210894983152,7.237995839720781,22.0,13.0,99.0,78.0,3.762365538089989,2.0
370.0078122,9.871706250068351,9.985103623106278,11.10675935197659,11.2575023972975,0.0324052863178653,0.0870411999190193,0.033585956134077,0.036931604263133,0.0418276138846847,0.0540462084407175,0.0805926105165428,0.0635756761209956,0.0708475250552065,0.04365360497318,0.0260164836499694,0.0352384756307598,0.0677074721089339,0.0807423283463637,0.0503802982699673,0.0646026787961741,0.1600684550736669,0.1621565321451536,9.989162936651482,9.989162936651482,0.4467847383896215,0.8513720856081433,29.035295208733228,29.019041094451183,7.3907368089043795,22.0,13.0,99.0,79.0,3.762365538089989,2.0
371.0078122,9.87699105370694,10.02665937745445,11.575403924830956,11.837109041714957,0.0333752538023306,0.0891180685213343,0.0384878102183082,0.0395231028274057,0.049178893113872,0.0602307762075415,0.0861879350666155,0.0848106152115475,0.0730227345721858,0.0456718586170922,0.0286961705203599,0.0402676519105931,0.0750191081973101,0.0840189942794268,0.0562654469477509,0.0787830313053264,0.176049167892839,0.1745127080460504,10.081705066298657,10.081705066298657,0.4469104658984493,0.8517219731355032,29.033994925407534,29.017026799655056,7.3907368089043795,22.0,13.0,99.0,79.0,3.762365538089989,2.0
372.0078122,9.883005729677802,10.069644301829497,11.975616699015005,12.35682562719376,0.0339635273050453,0.091323380546523,0.0437653050088066,0.0425561966273877,0.0552590226288385,0.0645565495367461,0.0896916835777887,0.1014082946334156,0.074557773391077,0.0513663423738655,0.0320724922043766,0.0438843235788829,0.0800767715206507,0.0828164621637135,0.0613596575485289,0.0888942482398155,0.1879933786047559,0.1846578222454877,10.187999464727811,10.187999464727811,0.4470178498117821,0.8520546893975941,29.03263454094913,29.01510600393187,7.3907368089043795,22.0,13.0,99.0,79.0,3.762365538089989,2.0
373.0078122,9.889126148134409,10.109038787695622,12.254210080617788,12.72134502875165,0.0340955220810594,0.0925699458204718,0.0471374932868094,0.0461465691353012,0.0582635648645335,0.0679347218255486,0.0912479462739691,0.1054155642563601,0.0753587089984919,0.0567738212867016,0.0351206595523823,0.0449628426625334,0.082201933458156,0.0812575479380264,0.0658848900133189,0.0934230700349747,0.1945751313346865,0.1915819512052357,10.292474087208326,10.292474087208326,0.4471149324612113,0.8523680795328926,29.03137259295675,29.01327656763441,7.583530742801583,22.0,13.0,99.0,79.0,3.762365538089989,2.0
374.0078122,9.89442825290026,10.141120751471608,12.409421407579,12.92197297174876,0.0338301442211815,0.092108265239268,0.0473751252328435,0.0495497372322968,0.058654242950079,0.0696302145337788,0.0907898487603624,0.0971056910146367,0.0760685808143832,0.0595714884773831,0.0370872400122,0.0442176156685541,0.0811294779120606,0.0805424171700807,0.0692773630922407,0.0934424564833956,0.1960086118906086,0.1955632241197256,10.356559423908276,10.356559423908276,0.4471978284999014,0.8526547227837828,29.030248019485164,29.01138184489391,7.583530742801583,22.0,13.0,99.0,79.0,3.762365538089989,2.0
375.0078122,9.898741058558326,10.16274583008363,12.489287987977391,13.009623990296344,0.0336773765670491,0.0908633362068637,0.0459001018687542,0.0524770369570071,0.0583202260779004,0.0686618574007809,0.0891783637523135,0.0851549909752723,0.0775299608625653,0.0598293515626104,0.037836491809353,0.0434673638763606,0.079002914764178,0.0795800840416637,0.0712001661968968,0.0917177113530644,0.1941340641073351,0.1978224013760032,10.353040054910906,10.353040054910906,0.4472612040037116,0.8529285379330096,29.02902775153509,29.00945515830017,7.583530742801583,22.0,13.0,99.0,79.0,3.762365538089989,2.0
376.0078122,9.90229318141565,10.174088870851836,12.542518586880808,13.03354062110468,0.0342196334838066,0.0900409757257132,0.0449097317239571,0.0552662653454665,0.0582330073047496,0.0653478964213801,0.0877177125444202,0.076849723835458,0.0801916934776857,0.0587635000138073,0.0376366050408758,0.0439630579147439,0.0788645259670997,0.0781715964134114,0.0723863436821224,0.0907856040624334,0.1914143903889999,0.1998400394668602,10.301157141146518,10.301157141146518,0.4473206230587836,0.8531878636340897,29.027843117029317,29.0075934698936,7.808163862498081,23.0,13.0,99.0,80.0,3.762365538089989,2.0
377.0078122,9.904043119050195,10.178909594721492,12.5847320593277,13.01848702055857,0.0356478691478055,0.0899257552614378,0.0450342655690927,0.0576552622836999,0.0580918972422374,0.0608454296921231,0.0876297426326723,0.0734692422432255,0.0837845761135536,0.0570084365574983,0.0367643571116912,0.0455151511660321,0.081490554275664,0.0779079366711423,0.0737342302267209,0.0919929098031925,0.1896891760282947,0.202606122838569,10.243394504123614,10.243394504123614,0.4473660438735301,0.8534318468106368,29.02666323683164,29.00575691626684,7.808163862498081,23.0,13.0,99.0,80.0,3.762365538089989,2.0
378.0078122,9.90239096715856,10.180498580463434,12.607438713221615,12.97981931558226,0.0377524122592679,0.0900424459397341,0.0454424976036131,0.0584289004072464,0.0577614310561015,0.0565172508551874,0.0897305877153198,0.0742999341120116,0.0872337768385974,0.0542320485530213,0.0351096796875775,0.0470625022100531,0.0847553821505895,0.0797172541638386,0.0751045356720624,0.095969067671769,0.1896048260068271,0.2062521527164686,10.20711245658782,10.20711245658782,0.4473928265449193,0.8536504599084916,29.02554008804817,29.003881010797382,8.055598553378463,23.0,14.0,99.0,80.0,3.762365538089989,2.0
379.0078122,9.898461735632807,10.180725396187416,12.613350207523892,12.93551786823663,0.0397917068010065,0.0899260853910751,0.0456066076566457,0.0572538743558375,0.0577201435702273,0.0536125168854398,0.0937749684835099,0.0787129144914275,0.0894349202787628,0.0503916291728679,0.0325737902673781,0.0478847038057062,0.0863162883280948,0.0826432602631585,0.0757495498069691,0.1029605191589899,0.1907583353078249,0.2102549671376083,10.199652550020923,10.199652550020923,0.4474041725147189,0.8538479562785141,29.024386367733467,29.001944799887543,8.055598553378463,23.0,14.0,99.0,80.0,3.762365538089989,2.0
380.0078122,9.895834587849883,10.180943477669228,12.629891557324386,12.904306914240795,0.0406254805711919,0.0894771108837993,0.0460217562189881,0.055896102730448,0.0582760737173939,0.0522968400375229,0.0978398511972094,0.0837793495773109,0.0899590172627462,0.0469790975172306,0.0301248059986154,0.0481122671433899,0.0863761161955272,0.0855295538525433,0.0752726537880872,0.1113600339016803,0.1922103187312593,0.2139300137561233,10.217789181733572,10.217789181733572,0.4474006457577304,0.8540292793082922,29.0232171519674,29.00014512254172,8.055598553378463,23.0,14.0,99.0,80.0,3.762365538089989,2.0
381.0078122,9.896574090216092,10.180712881797463,12.680216570936077,12.899680564658013,0.0398852154641127,0.0889189863861049,0.0471533872038283,0.0561296279277594,0.0593116598876063,0.0513944867767827,0.0990037537137579,0.0852805164773635,0.0888445152508597,0.0462435986819123,0.0295707923587083,0.048317109642878,0.0873496968996299,0.0875668887327321,0.0733024591495175,0.117436339553395,0.1931907080760581,0.2168474617119613,10.248839518838892,10.248839518838892,0.4473790506813377,0.8541988492377697,29.02209181878018,28.998422508907428,8.316597670703015,24.0,14.0,99.0,81.0,3.762365538089989,2.0
382.0078122,9.899747617988249,10.177195329890084,12.760066210863169,12.916973568625602,0.0385176596532158,0.0889096034090815,0.0489615260781399,0.0573085544957466,0.0607282200214494,0.0502210737048676,0.0961805414424666,0.0829025415188314,0.0864814118122409,0.0491148102064044,0.0317661831085678,0.0490566330921127,0.0915471079503739,0.0873710470204932,0.0697435005532222,0.1185781685056678,0.1937185902715693,0.2190507074205866,10.271810212351856,10.271810212351856,0.4473491504594151,0.854338973895132,29.02097264151996,28.996780130143907,8.316597670703015,24.0,14.0,99.0,81.0,3.762365538089989,2.0
383.0078122,9.902979452091063,10.16976192988281,12.851357695015208,12.93503727727253,0.0377550424855613,0.0899980589552576,0.0513499329614526,0.057608748110325,0.0624159128083212,0.0497445839610961,0.0921234829764779,0.0803160597598167,0.0840131364488701,0.0539823538342229,0.0353734854647373,0.0507107366227877,0.0992618267144128,0.083790652223422,0.066414417771559,0.1155867542313016,0.1946376152253733,0.2210547076762911,10.271456483753228,10.271456483753228,0.4473014742200087,0.8544652141819077,29.019930158011924,28.995227594304605,8.582313257360257,24.0,14.0,99.0,81.0,3.762365538089989,2.0
384.0078122,9.90422498939595,10.163289639768497,12.938180545323917,12.939095447881252,0.0383034198725736,0.0918970204343935,0.0539356001096154,0.0568274457679573,0.0637427241790509,0.0505455978901254,0.0912148885128994,0.080218906476647,0.0831251661041701,0.0576867001377729,0.0379714055350053,0.0530789250009567,0.108006164555001,0.0775492353790526,0.0662697509276286,0.1119056042670026,0.1969295083854645,0.2235673580395712,10.253916169502295,10.253916169502295,0.4472448762130311,0.8545808813296266,29.018824183064176,28.99362960194732,8.582313257360257,24.0,14.0,99.0,81.0,3.762365538089989,2.0
385.0078122,9.903550112470276,10.161515317725032,12.99630790652536,12.922083600136531,0.0402278417034555,0.0938873892202059,0.0559501922515764,0.0562279881147274,0.0637213594230617,0.0515796221408318,0.0957540928720111,0.0831061649879002,0.0850139082055752,0.0588155099836374,0.0386378223807384,0.0551627924095166,0.1137038673540406,0.0711999238629196,0.070193486585545,0.1120275231630804,0.2008427563575787,0.2270213064089933,10.243958697176009,10.243958697176009,0.4471730403741137,0.8546830794764677,29.01763840035237,28.99210915895515,8.582313257360257,24.0,14.0,99.0,81.0,3.762365538089989,2.0
386.0078122,9.90287148296896,10.161956444389885,12.984364776023774,12.878745382568908,0.0426125996661859,0.0953276532113727,0.0570562956898497,0.0563335583017084,0.0620844594447383,0.0523258271876991,0.1045544785808367,0.0886005339900498,0.0897227401665757,0.0593878430352735,0.0386541112860751,0.0559951984413669,0.1134523039818334,0.0676707796619792,0.0761070729479938,0.1179683744466297,0.2054465346444925,0.2311352240441029,10.259690264953866,10.259690264953866,0.4470857004300842,0.854773750312279,29.01651817837052,28.99069340307724,8.844789306456999,24.0,15.0,99.0,82.0,3.762365538089989,2.0
387.0078122,9.902914780662773,10.161394746782248,12.878655470917518,12.827034968581865,0.0438581958061692,0.0956083441093287,0.0573458322693771,0.0569895934761069,0.0599357130190634,0.0532692452173718,0.1136621127699076,0.0939938595949061,0.0956540046006377,0.061868690124178,0.0396360499892566,0.0554628997879324,0.1078209541856645,0.0684638194880373,0.0812625373960549,0.1261366745383102,0.2089408253540907,0.2348557119503788,10.287794319598149,10.287794319598149,0.4469913327903938,0.8548541390633657,29.01549208641404,28.989408672188187,8.844789306456999,24.0,15.0,99.0,82.0,3.762365538089989,2.0
388.0078122,9.902980625516967,10.160272644304662,12.731018689078162,12.803243399577918,0.0432711854723302,0.0943949283897043,0.0564179507826311,0.0590498951505227,0.0588237374445524,0.0537523759480477,0.1185374398298438,0.0942180532888428,0.0994156077519305,0.06548809069308,0.0417133618882471,0.0540101804696673,0.1005279669085776,0.0725042081441613,0.0842370469497646,0.1309275023247896,0.2095755188215241,0.2368211385028763,10.299440643177032,10.299440643177032,0.4468865177408295,0.8549263431861848,29.014481600357044,28.98808500794979,9.097341557017709,25.0,15.0,99.0,82.0,3.762365538089989,2.0
389.0078122,9.90333553289543,10.160197516052454,12.648809968250724,12.820106002458916,0.041746058887671,0.0922545879575253,0.053887908079639,0.0630979462565655,0.059347639502227,0.0525215414112717,0.1166136173115392,0.0873202744745391,0.0984220049999818,0.0670479989945988,0.0434518928957565,0.0521305884055875,0.0953938120514983,0.0766677634907868,0.084810751428986,0.1302430995793871,0.2066738633518561,0.2362150409725837,10.293993883896762,10.293993883896762,0.446779142164923,0.8549895315912716,29.013416217218165,28.986869645668893,9.097341557017709,25.0,15.0,99.0,82.0,3.762365538089989,2.0
390.0078122,9.90428982291627,10.16175962312214,12.681490032558,12.856259079596342,0.0405460966348702,0.090324565720292,0.0502392768790877,0.0672351304387239,0.0610579622851592,0.0500651732872561,0.1084101833683731,0.0772228315179826,0.0943848034784953,0.0647345105364654,0.043204005394143,0.0502731940366266,0.0933701078209212,0.0786449712311905,0.0833461169831554,0.1253442608724609,0.2010521474660115,0.2334755221190732,10.29714737449206,10.29714737449206,0.4466622281128469,0.8550379627821874,29.012303488262308,28.98570130609029,9.33479339074104,25.0,16.0,99.0,83.0,3.762365538089989,2.0
391.0078122,9.904725905861234,10.165173717963988,12.767544056999848,12.881340186528066,0.0403067802792217,0.0889502480252505,0.0462332124228898,0.0691879227573027,0.0633936192860063,0.0479918980963848,0.0971811846281513,0.0688457025990701,0.0913922761401457,0.0595406405426607,0.0404337983136245,0.0489967953106331,0.0931877240557839,0.0791952121991189,0.0805864378241957,0.1192134862770965,0.194540000745657,0.2302566227137252,10.306694004276574,10.306694004276574,0.4465408311055859,0.855078405127063,29.011281550843155,28.98446417371927,9.33479339074104,25.0,16.0,99.0,83.0,3.762365538089989,2.0
392.0078122,9.903949410065762,10.170276488517253,12.814699127346769,12.874712700274264,0.040988124099442,0.0876660869053755,0.0426389470929133,0.0692797352444102,0.0659995796560141,0.0469800590805129,0.0873641498617335,0.0639970960163264,0.0909462687616408,0.0535634864447264,0.0359769176932384,0.0489862365416914,0.0939436644070378,0.0802527322588822,0.077735328800073,0.1166936455635668,0.1890201148602182,0.2284906650880949,10.28402786358491,10.28402786358491,0.4464024260178392,0.8551129988270423,29.010327515518505,28.983203288371698,9.55356338300384,25.0,16.0,99.0,83.0,3.762365538089989,2.0
393.0078122,9.902561941764626,10.176097193481844,12.79468542905523,12.838871387335349,0.0420744046996412,0.0867180018551694,0.0405651841880299,0.0689511871588867,0.0681023924594744,0.0467639929786718,0.0819129659133961,0.0624115266366789,0.0915490998036527,0.0486738632933236,0.0315963047052352,0.0504287918770246,0.0953686215921103,0.0817712285413714,0.0765909261763223,0.1216697131362025,0.1856826353038829,0.2290988451788479,10.218824550725786,10.218824550725786,0.4462722619938455,0.8551354531863723,29.009352017952292,28.982131063938784,9.55356338300384,25.0,16.0,99.0,83.0,3.762365538089989,2.0
394.0078122,9.90102475310509,10.181060592623316,12.741332352933965,12.8037399840306,0.0431696453032814,0.0870100412086786,0.0405598341170944,0.0683462447726451,0.0685465115266578,0.0469924414310686,0.0806386964121279,0.0633855637689992,0.0912260598663924,0.0461619149385484,0.0290347189351153,0.0524259703659186,0.0969459789453274,0.082291146486481,0.0779285731654601,0.1325745482142094,0.1848954247603904,0.2312912336125182,10.154567451835009,10.154567451835009,0.446142432029383,0.8551466738200265,29.00832751567689,28.98115212500805,9.751614967940204,25.0,16.0,99.0,83.0,3.762365538089989,2.0
395.0078122,9.899570889992813,10.183096270956533,12.684168510732514,12.796964198462447,0.0442972794489722,0.0884529570762782,0.0416369523166264,0.0671607420066461,0.0673302929016698,0.0475134305201986,0.0813360400322429,0.0662730364481507,0.0888027083716718,0.0461360199233696,0.0287964944231402,0.0535098932124336,0.0983220922867522,0.08149484526859,0.0797192002015685,0.1426458774573801,0.1865810213144348,0.2330978041641863,10.133015243792268,10.133015243792268,0.4460012910083781,0.8551563603656319,29.007314683411263,28.980248813204604,9.751614967940204,25.0,16.0,99.0,83.0,3.762365538089989,2.0
396.0078122,9.898952771879742,10.181349213549083,12.621934783326507,12.814654549436852,0.0451662301815668,0.0900768262759665,0.0424810938895987,0.0660642512764719,0.0665212081802034,0.0486775016804697,0.0823298263576778,0.0717051212781243,0.0847897752316861,0.0471844144189122,0.0297837092901906,0.0529452459071876,0.0996935710483495,0.0799293536713195,0.0791088359739221,0.1449147055045044,0.190570913260019,0.2328648619081994,10.15087991304033,10.15087991304033,0.4458641525506532,0.8551477021954136,29.006380894418022,28.97940126634061,9.928290596052989,25.0,17.0,99.0,84.0,3.762365538089989,2.0
397.0078122,9.899362493609235,10.178126496540775,12.555875723614069,12.83526222263965,0.0451326295261368,0.0916605347823576,0.043097187637797,0.0659474938062231,0.0682031728600352,0.0511443748130557,0.0838848648122119,0.0814853977735616,0.081300957404291,0.0474213189198922,0.0303468821854538,0.051362910169203,0.1017478857394479,0.0774872369976004,0.0758436935913254,0.1380605038898725,0.1964466225662148,0.2305840280000895,10.17913533303768,10.17913533303768,0.4457146167153305,0.8551150319407608,29.00537803847945,28.978537717079814,9.928290596052989,25.0,17.0,99.0,84.0,3.762365538089989,2.0
398.0078122,9.899708782767071,10.175692001667464,12.50476579943343,12.843666798872402,0.0442422977916984,0.0934653308015795,0.0442141338607609,0.0669494286316094,0.0717343079334629,0.0550277558078426,0.0871401812552061,0.0943356424976053,0.0801064146391696,0.0465604158404937,0.0301486648457041,0.0496835919998561,0.1049959828852378,0.0743995873364374,0.0725911567084866,0.1278884296668969,0.203113609745098,0.2279161305860783,10.198002424757174,10.198002424757174,0.4455599355703,0.8550741906513729,29.004398499294627,28.977709906164563,9.928290596052989,25.0,17.0,99.0,84.0,3.762365538089989,2.0
399.0078122,9.8994852146221,10.172300421249645,12.483780813552498,12.829273780252397,0.0430524191062722,0.0945374710836217,0.0456753966860878,0.0690271655047874,0.0743302435921907,0.0592758686356457,0.0919889326316651,0.1033146845578105,0.0811856534661297,0.0464306381149847,0.0307777299423726,0.0481237489582367,0.1079829557148792,0.0727723415459837,0.0723480649926885,0.1215824472157138,0.2088191371840737,0.2269087837614395,10.203442315896194,10.203442315896194,0.4453918656182595,0.8550377814290845,29.003458569765616,28.977038707179727,10.084060929617417,26.0,17.0,99.0,84.0,3.762365538089989,2.0
400.0078122,9.899476900425302,10.16493803052674,12.493718385839806,12.778892167101493,0.0417462564656439,0.0934714462695099,0.0464800557676261,0.0721757070847293,0.0742971227013156,0.0618315780928212,0.0973683006266848,0.1025389321485643,0.0828922904622916,0.0486810872207562,0.0337869244050612,0.0469499992085202,0.1081842896279574,0.0750577316764233,0.0758530067648527,0.1219743522780078,0.2120396533329961,0.2284341759155553,10.197649844127438,10.197649844127438,0.4452246095471434,0.8550099686558652,29.00249843112516,28.976509959615672,10.084060929617417,26.0,17.0,99.0,84.0,3.762365538089989,2.0
401.0078122,9.899892538843444,10.15301686343191,12.522034055521669,12.691405471373086,0.0404474591026747,0.0907494884638085,0.0463356532193535,0.0753378281405316,0.0728631548142976,0.0611648957922891,0.1023363755947113,0.0950261299682758,0.0834628502117985,0.0526850873438831,0.0386194643527534,0.0470779841001547,0.1056702665364666,0.0804873096659677,0.0809784471972987,0.1279246736314717,0.2123390359456374,0.2315471634307546,10.183915228310884,10.183915228310884,0.4450644018218161,0.8549847851726684,29.00157462740576,28.976023147653333,10.22022384385944,26.0,17.0,99.0,84.0,3.762365538089989,2.0
402.0078122,9.899790437842729,10.138789995354983,12.547055067635483,12.59687618863491,0.0395427139674118,0.0884185146824507,0.046252818682922,0.0765532952442978,0.0724085255258882,0.0579899702943324,0.1046165926260634,0.0884515774622195,0.0830430722043468,0.0562182470799291,0.0429354845451388,0.0489208954797701,0.102803646079002,0.084903775092721,0.0836269158132671,0.1351482456081424,0.2103657938560363,0.2341277712094484,10.164462096541769,10.164462096541769,0.4449167819561317,0.8549674166812643,29.00056216878455,28.975651725247303,10.22022384385944,26.0,17.0,99.0,84.0,3.762365538089989,2.0
403.0078122,9.898826687730493,10.127060244660184,12.552246196833291,12.539555577288128,0.0391938436693058,0.0876001569535633,0.0471093350432554,0.0754655445823607,0.0734403076318293,0.0544231344522675,0.1016504544497538,0.0850288302008276,0.0834668494911125,0.0576515304121353,0.0446107503660781,0.0513104431867067,0.100390129173008,0.0855235390223952,0.0809648297674715,0.1372650482434563,0.2072310006765041,0.2343252752399454,10.139729724725424,10.139729724725424,0.4447735675585779,0.8549569317884621,28.999544406430648,28.97536889644548,10.338588502048028,26.0,17.0,99.0,84.0,3.762365538089989,2.0
404.0078122,9.898127566749537,10.122206067133714,12.540859039627833,12.53164893464034,0.039416672609128,0.0877151027385321,0.048489390740042,0.0744921277174481,0.0745419518069718,0.0516218533669064,0.0952235499706684,0.0813213170711869,0.0853058899080929,0.0571329684223333,0.0433737377312287,0.0525457075064184,0.0975781086444258,0.083632074015591,0.075186092710109,0.1319502023318241,0.2040145865530546,0.231747406528103,10.110226943733744,10.110226943733744,0.444637294334464,0.8549151167855924,28.99855539954397,28.97506896861116,10.338588502048028,26.0,17.0,99.0,84.0,3.762365538089989,2.0
405.0078122,9.898807236773944,10.124035543650622,12.53168840942457,12.544031035187151,0.0404054687350089,0.0882045340965319,0.0495499129859607,0.0758913183868012,0.074837917511876,0.0494017645153617,0.0905229404066084,0.0760840818749107,0.0869201611351532,0.0558431747304843,0.0406906603335166,0.0522916365168346,0.0950287676418108,0.081530046298483,0.0710885565344954,0.1240167737580123,0.201510367259096,0.227439617887255,10.079431378958308,10.079431378958308,0.4444962028917655,0.8548850817897357,28.997563028022988,28.974843526569472,10.441177016546254,26.0,17.0,99.0,84.0,3.762365538089989,2.0
406.0078122,9.900573085426958,10.12792378154713,12.538555168697227,12.544953603355276,0.0418140595008593,0.08918352008599,0.0499397714862344,0.078838282740376,0.0747336958980186,0.0476769694973491,0.0897715413337948,0.0720099874043494,0.0868772135391162,0.0549242635084005,0.0385545053237322,0.0518129707083762,0.0947303462602506,0.0795942905553702,0.070046632938804,0.1183777848655778,0.1999539841334811,0.2227787901455399,10.05446861854504,10.05446861854504,0.4443677024920607,0.8548663123235588,28.996617932574203,28.97466220505293,10.441177016546254,26.0,17.0,99.0,84.0,3.762365538089989,2.0
407.0078122,9.901991743314326,10.12933355003441,12.561770731723266,12.530030177917329,0.0425592751243858,0.0901328028297258,0.0496552910246482,0.0805908679771275,0.0744596567409309,0.0469407152860067,0.090778774523077,0.0710272245157099,0.0849650445280423,0.0551934297135813,0.0383944934423533,0.0525374032472089,0.0968095346911951,0.0773774897082031,0.0697359590478158,0.1138896390450973,0.1989018291659037,0.2184651593157562,10.04424240223277,10.04424240223277,0.4442508874544086,0.8548658682279276,28.99563139302372,28.97447759626709,10.441177016546254,26.0,17.0,99.0,84.0,3.762365538089989,2.0
408.0078122,9.901437058670096,10.129762301830976,12.599372049818005,12.527919777098388,0.0422879558392941,0.0901047354156716,0.049096778527718,0.0790870093005046,0.0737014958915272,0.0472331231670388,0.0912692193140879,0.0722991845892891,0.081423693662876,0.0567524121400671,0.0401049219058504,0.0546340296531892,0.0986213696104311,0.0753242040137016,0.0684777447506398,0.1078129370947853,0.1975760241465626,0.2144742395183341,10.056736291345931,10.056736291345931,0.4441325649011837,0.8548646405232189,28.99459713441972,28.974470307532293,10.529970784426595,26.0,18.0,99.0,84.0,3.762365538089989,2.0
409.0078122,9.898173393462674,10.135778894869103,12.65493248363009,12.571607077084051,0.0417656417611754,0.0890238583064246,0.0489608018439424,0.0740558888105696,0.0725391239276776,0.047499901009319,0.0912721615758671,0.0732186829638143,0.0773552790167697,0.0588540102327239,0.0422369669787864,0.0569901632081848,0.0974481691479197,0.074094340610039,0.0668448219644185,0.1017441253836739,0.1954732307593481,0.2106189713152583,10.090896272614192,10.090896272614192,0.4440154172702407,0.8548620759498131,28.993602334248298,28.974474541798624,10.529970784426595,26.0,18.0,99.0,84.0,3.762365538089989,2.0
410.0078122,9.893467300848354,10.149126616248443,12.726447716346232,12.649022688483068,0.0413815120644511,0.0875014975478998,0.0496284069368789,0.06735354941067,0.0716343786465822,0.0466516953982854,0.0914010365851191,0.0716202294109528,0.0748121370884314,0.0605650647423088,0.0436825463827529,0.0583643805198067,0.0930293914456324,0.0732739015745526,0.0656860912830334,0.0984795596109728,0.1927155801920935,0.2069274697260393,10.1327284075736,10.1327284075736,0.4439040376099946,0.8548622251925091,28.99284030426428,28.974523534492054,10.606721155782452,26.0,18.0,99.0,84.0,3.762365538089989,2.0
411.0078122,9.8895472463693,10.163260646439072,12.798530986325082,12.723259889920278,0.0407331682601907,0.0861775872742556,0.0509712656690649,0.06181163493184,0.0717925202736413,0.0450312785327866,0.0907732709695581,0.0684491831490924,0.075304707271567,0.0612230770448252,0.0443881309105248,0.0583986965705796,0.0870831703460984,0.0718434266839075,0.0647949629263606,0.0970180541787653,0.1899432376427121,0.2036385071343644,10.171963929767186,10.171963929767186,0.4437922341713511,0.8548698704833316,28.99200003576645,28.974620198636742,10.606721155782452,26.0,18.0,99.0,84.0,3.762365538089989,2.0
412.0078122,9.887087108357385,10.17195543138604,12.851431787667972,12.792572747746853,0.0396847986772796,0.0855474780857977,0.052499097700066,0.0585790735177852,0.0734299886711099,0.0439646623037365,0.0877554238055653,0.0666889663974859,0.0788049341934768,0.0607628557057746,0.0446409024984717,0.0577494737087694,0.0819414643597072,0.0693817317444429,0.0636232143917833,0.0950058298681243,0.1879684885270844,0.201065028761632,10.214059379518671,10.214059379518671,0.4436934203623166,0.8548860488160287,28.99115969098469,28.974832315372208,10.672835392687997,26.0,18.0,99.0,84.0,3.762365538089989,2.0
413.0078122,9.885502311661003,10.175342685725017,12.86664216597371,12.875083182605678,0.0387366965601754,0.0857959070467212,0.0536580698637864,0.0567802256037904,0.0760070266782517,0.0440491456750404,0.0828737832769249,0.0675987234598568,0.0841931743114478,0.0598093959790798,0.0446355736326451,0.0572587407143905,0.0793405207424694,0.0660226903045023,0.0622753229772732,0.0927423694462454,0.1875273240309626,0.1995006664304508,10.265090535850849,10.265090535850849,0.4436019893630748,0.8549030712706734,28.99025679979572,28.9750385128534,10.672835392687997,26.0,18.0,99.0,84.0,3.762365538089989,2.0
414.0078122,9.884825308330267,10.17660702461766,12.842396524655223,12.966028280235896,0.0384726801910074,0.0867778921975409,0.0544767583945986,0.0555973572357304,0.0782403014365122,0.0448052748493389,0.0797702847364639,0.0702730672834281,0.0900794613950678,0.0588176180191664,0.0444716181817831,0.0569844924507325,0.0789876253813237,0.061899171229729,0.0616574279645591,0.0916309683013065,0.189094129445914,0.199075344252767,10.317503120688484,10.317503120688484,0.4435092530151439,0.8549275787835121,28.989315907615023,28.975304279579724,10.672835392687997,26.0,18.0,99.0,84.0,3.762365538089989,2.0
415.0078122,9.885476398967413,10.17726224163393,12.807242205614097,13.038119745390116,0.0390551560472603,0.088061795467804,0.0554600460067569,0.0553348676108152,0.0791851923813684,0.0459216097187729,0.0823492086274368,0.0741520360906448,0.0955771345574515,0.0574785186901442,0.044046130602095,0.0563373350886529,0.0792772457823541,0.0578323485873715,0.0626619504323019,0.0914774110796066,0.1926403923397998,0.1996673145094647,10.355976285183004,10.355976285183004,0.4434294953406266,0.854941952737072,28.98837313241544,28.97562076509334,10.729339741386092,26.0,18.0,99.0,84.0,3.762365538089989,2.0
416.0078122,9.886824412462916,10.177079833021528,12.7899754922582,13.058418586764097,0.0400069371649396,0.0888060195294086,0.0561704268439526,0.0569730571109727,0.0791205049970299,0.0476771466222754,0.0910075622261832,0.0791629497905612,0.1007481837407324,0.0556305960835343,0.0432481310908381,0.0549961374517282,0.0792199528575076,0.0557965136929828,0.0652946747963594,0.0915819528140631,0.1973450204807899,0.2008750934806218,10.370878252228362,10.370878252228362,0.4433490615079586,0.854952160545703,28.987502593845424,28.97607192228293,10.729339741386092,26.0,18.0,99.0,84.0,3.762365538089989,2.0
417.0078122,9.888036954927015,10.176998000250812,12.788374893578082,13.015396258048945,0.0405871523316432,0.088301674100966,0.0552152930105886,0.0614703207575633,0.0790625029966452,0.0497643256453362,0.1013663941232727,0.0833212984685312,0.1054183827111972,0.0540976761353875,0.0424390630510202,0.0532172788016595,0.0785395433090218,0.0571271164865884,0.0686317312068884,0.092078947519876,0.201633622409516,0.2020099835285597,10.363912579956498,10.363912579956498,0.4432717116370752,0.8549656018661701,28.98655964061308,28.97660257923771,10.7769127876172,26.0,18.0,99.0,84.0,3.762365538089989,2.0
418.0078122,9.890284773896491,10.17806920004171,12.775482796771303,12.937954999551268,0.0404848991461752,0.0869958372234065,0.0526186420318031,0.0682589266656398,0.0790526173777349,0.0510253046617089,0.1070285336364955,0.0832586059910474,0.1077061411262038,0.0536838360622105,0.0421210825144413,0.0515659628944838,0.0772758040699019,0.0609468641302663,0.0710223892459754,0.0921707929169848,0.203838041904232,0.2022428671632162,10.345004824575652,10.345004824575652,0.443203545227172,0.8549683989917862,28.985707468685607,28.97708147102808,10.7769127876172,26.0,18.0,99.0,84.0,3.762365538089989,2.0
419.0078122,9.894820755927023,10.177802786140957,12.734784148588307,12.86967202649114,0.0398238890776367,0.086108076899198,0.0506375802481822,0.0737425270185121,0.0779389713367478,0.0510667691524463,0.1051011080969532,0.0787840946896731,0.1056632138589425,0.0540311707313926,0.0420756250124757,0.0506649018417698,0.0760824923301556,0.0650285647693304,0.0708276308338146,0.0898519802802782,0.2031181827387221,0.20107414242024,10.32532014397269,10.32532014397269,0.4431307208905321,0.8549745200123892,28.984795926859363,28.97762964267623,10.7769127876172,26.0,18.0,99.0,84.0,3.762365538089989,2.0
420.0078122,9.899770014896724,10.174679643801802,12.6960724104394,12.838196114876228,0.0388202180571924,0.0861314694470573,0.0513518738685847,0.0736605578087293,0.0756523889479074,0.0505215171288778,0.0983948475910477,0.0740458228857134,0.1004520147084806,0.0544039309552209,0.0417065828763431,0.0507859226079193,0.0755783916202462,0.0673971248499082,0.0678132656735778,0.0854366853697815,0.199835953997466,0.1988346519586163,10.309214449198484,10.309214449198484,0.4430617466298948,0.854993050774601,28.98394032395463,28.97818988613561,10.81597501781733,26.0,18.0,99.0,83.0,3.762365538089989,2.0
421.0078122,9.90256760553858,10.175670636417236,12.70514289678978,12.858040350476614,0.0379442631227667,0.0865381520264812,0.0539739858664628,0.068345713127152,0.0741354706026666,0.0493937235576736,0.0910442098285295,0.0722546933455782,0.0955461038462781,0.0546853476837386,0.0409927777213249,0.051564261689261,0.0756700467600193,0.0677509013996253,0.0634617415345005,0.0824496898956235,0.1950449953229217,0.1966092693958065,10.294862917788928,10.294862917788928,0.4429953300246259,0.855000079446273,28.983009150235283,28.97880880286976,10.81597501781733,26.0,18.0,99.0,83.0,3.762365538089989,2.0
422.0078122,9.903674884021418,10.188953879640122,12.75344283338608,12.920880983916538,0.0378456642448804,0.0864634038560282,0.0553376503173604,0.0629231018406909,0.0748856525891472,0.0472293453910157,0.0844695012765626,0.0714677959599664,0.0926318385568983,0.0550297212067006,0.0402936199385523,0.0522544296094172,0.0760728933495166,0.0676277872241648,0.0603162065880451,0.0838936790382513,0.1896826101848159,0.1954689927660194,10.27666820416681,10.27666820416681,0.4429230568536216,0.8550053253324074,28.982118872194853,28.97952189097842,10.846815455207569,26.0,18.0,99.0,83.0,3.762365538089989,2.0
423.0078122,9.904842854670946,10.20785277520358,12.78685588143221,12.977462330709631,0.0384495911262529,0.0853354615491261,0.0535029131404958,0.0612262613296994,0.0766541158314853,0.0446773052088894,0.0786179989998955,0.0677409412602327,0.0907979572476935,0.055483738770948,0.0398939436401007,0.0522327233991495,0.0765570846084374,0.0683371532438468,0.0606937550837068,0.0892400736219441,0.1842633840146765,0.1956656589879258,10.244287187275596,10.244287187275596,0.4428607195712365,0.8550117668906734,28.981233279252702,28.980236537416488,10.846815455207569,26.0,18.0,99.0,83.0,3.762365538089989,2.0
424.0078122,9.906126682545986,10.213481691820895,12.778454959034994,12.980697380984108,0.038847361464454,0.0834931145356061,0.0496849976640271,0.0622221005545906,0.0764682370294285,0.0431364594961476,0.0742419809026797,0.0612300737841214,0.0889949348010667,0.0558893872828661,0.0400339819836963,0.0513157873511937,0.0768933257262353,0.0696709542583179,0.0645540705009306,0.0944896178457909,0.1791625343326189,0.1965292606856573,10.20198954558098,10.20198954558098,0.4427976033277788,0.8550155852835587,28.98032483204931,28.980981645413447,10.869733871467345,26.0,18.0,99.0,83.0,3.762365538089989,2.0
425.0078122,9.906642620466911,10.198205181257322,12.74146247636666,12.943287861067692,0.0386497963129521,0.0818263209604474,0.0460699545245447,0.0628944998614529,0.0727441524346259,0.0432637018793265,0.0725484586920018,0.0558845400451154,0.0870226099294277,0.0555457470436555,0.0403482148410706,0.0497405968764814,0.0773843917512607,0.0711518601588147,0.069268848428027,0.0953540229028836,0.1748918078912711,0.1971562112284992,10.187559251295406,10.187559251295406,0.4427274747585269,0.8550173704136085,28.97947714443475,28.981800744916416,10.869733871467345,26.0,18.0,99.0,83.0,3.762365538089989,2.0
426.0078122,9.90564942954219,10.177312456474278,12.685372564263607,12.913941066388364,0.0383471922473861,0.0808934417853463,0.0436489532128657,0.0621791988736638,0.0669686831753778,0.0446090766676213,0.073845538640364,0.054025932935155,0.0850547749621242,0.0536729490564466,0.0396316534123784,0.0480704267877442,0.0790966912568907,0.0728786665686617,0.0719859618532665,0.0913895574755311,0.1720431981610059,0.1972537296411246,10.228970238845916,10.228970238845916,0.4426650888895987,0.8550128892610834,28.97855414818855,28.982670821402387,10.885177465237025,25.0,18.0,99.0,83.0,3.762365538089989,2.0
427.0078122,9.902504605560482,10.17039296017962,12.60983174304961,12.916006380811844,0.0381358911860392,0.0808218740910256,0.0425619842630247,0.0610770470332756,0.0621140961233415,0.0461721981360851,0.0769807963501067,0.0543753335805901,0.083154386609678,0.0508436985654503,0.0373562439087133,0.0468882340716077,0.0832882921583944,0.0749332127552524,0.071522947219257,0.0860376389713106,0.1709549575563105,0.1974191594943095,10.284693306601126,10.284693306601126,0.4425969840674582,0.8550104698893201,28.97767376933908,28.98354042297224,10.885177465237025,25.0,18.0,99.0,83.0,3.762365538089989,2.0
428.0078122,9.897719564942877,10.178001550511343,12.533834690560663,12.933039169248785,0.0376819710678414,0.0814544462053843,0.0427765098522819,0.0604282425503441,0.0603342164206596,0.0471420170142108,0.0801422942516315,0.0549898318634215,0.0814394679118529,0.0493240376641694,0.0347603552323452,0.0462771009922616,0.090275504817074,0.07726034167915,0.0687522890290727,0.082873820577278,0.1715253420095893,0.1986206375196953,10.288760081551908,10.288760081551908,0.4425259317514299,0.8550020938762087,28.976779129672533,28.98438380012712,10.893853676383252,25.0,18.0,99.0,83.0,3.762365538089989,2.0
429.0078122,9.893376767753296,10.18457022986629,12.487870601388051,12.934593047854506,0.0370332927072823,0.0822325523731159,0.0439373461584526,0.060205300022571,0.0622118157448384,0.0476582781059651,0.0826413465280523,0.0558056519800961,0.0805785907515504,0.0507740960040438,0.0332679757712757,0.0461616892440368,0.0982905364873649,0.079729911669064,0.0659573215375472,0.0834865220970952,0.1732376033625258,0.2013719462243328,10.24350066666229,10.24350066666229,0.4424592518231987,0.8549867183362738,28.97592258678881,28.98526406746701,10.893853676383252,25.0,18.0,99.0,83.0,3.762365538089989,2.0
430.0078122,9.890897167675789,10.179665760810437,12.47062113884138,12.900203339740656,0.0368788749345138,0.0823718588540069,0.0450894011838344,0.0601343171054945,0.0662813144494336,0.0486468707960589,0.0848146392154337,0.0575174614109513,0.0811318137515901,0.0533452671126211,0.0324465281731516,0.0474234185254477,0.1039794236206363,0.0820340694309314,0.0646594598415963,0.0878977949801011,0.1753135704397503,0.205339762907748,10.19848234370244,10.19848234370244,0.4423949290860299,0.8549760080966594,28.975062778320485,28.98619483600057,10.893853676383252,25.0,18.0,99.0,83.0,3.762365538089989,2.0
431.0078122,9.889437166163546,10.16799760087615,12.453665480170711,12.827887955986988,0.0378199415814125,0.081655259785163,0.045029731162574,0.059895551869372,0.069381123069442,0.0504333866427453,0.0860281300734098,0.0595590014442758,0.0826330819586571,0.0533577961313057,0.0309841000647732,0.0514144699582962,0.1051394760850531,0.0841748144389113,0.0641453466896265,0.0947206982317127,0.1769853080202705,0.2096750168153245,10.17442230280629,10.17442230280629,0.4423271296709878,0.8549572911732407,28.974247060015347,28.98704607708616,10.896805247324403,25.0,18.0,99.0,83.0,3.762365538089989,2.0
432.0078122,9.887995910838256,10.161197568417522,12.443880529970263,12.74279472656726,0.0397180056241179,0.0808983557660325,0.0437672402285255,0.0594163144493615,0.0694918472930152,0.0519563790759734,0.085181531112268,0.0610685266943887,0.0840536932587214,0.0509770287383411,0.0291748221825601,0.0571468977181121,0.1027535154586075,0.086164150396355,0.0633272754398223,0.1016214364991254,0.1778403338606865,0.2136448638394923,10.166679683364483,10.166679683364483,0.4422588177398864,0.8549255370599516,28.97348535257672,28.98789356521847,10.896805247324403,25.0,18.0,99.0,83.0,3.762365538089989,2.0
433.0078122,9.887285577031523,10.165269690716508,12.480923173915054,12.695829172144222,0.0418009641738936,0.0809475220146803,0.0427991240906789,0.0589697902739979,0.0680180230670676,0.0518834495389377,0.0827600270960487,0.0624926580925081,0.084342413030705,0.0509738204173218,0.0287157133810311,0.0606690782692787,0.0994863506320121,0.0870285538923526,0.0631651551236105,0.1078888480695583,0.1779665136319549,0.2169173937946387,10.177598201800665,10.177598201800665,0.4421819597221466,0.8548976005952093,28.97271509297082,28.98881217518146,10.895438873027976,25.0,18.0,99.0,82.0,3.762365538089989,2.0
434.0078122,9.888306351852938,10.173076637935688,12.560270860409991,12.72124910282194,0.043258070464717,0.0815234395312899,0.0431948136536343,0.0586871455009502,0.0676368485535695,0.0502632155130754,0.0803328478387153,0.0641212580818263,0.0825203801528363,0.0563457177898898,0.0306499723844632,0.0595294956425624,0.0967238062518101,0.0852753388245626,0.0653665197455499,0.1148830904539953,0.1777091191618492,0.2193400838682121,10.207612721540098,10.207612721540098,0.4421099790209621,0.8548741376811242,28.971901183750727,28.989800334824764,10.895438873027976,25.0,18.0,99.0,82.0,3.762365538089989,2.0
435.0078122,9.890983143553136,10.171138176579134,12.640122826677215,12.790028304933177,0.043662555488398,0.0818270907688367,0.0446377593303448,0.0585540954699916,0.0691547883033069,0.0483511853756271,0.0788174311497425,0.0645846101139208,0.0786532801232387,0.0636780376175577,0.0345184226632813,0.0557584220538256,0.0944153783429448,0.0810022533382011,0.0692486334158433,0.1220412786485256,0.1773066920926717,0.220644596954466,10.245247223792235,10.245247223792235,0.4420426565067928,0.85484661402456,28.971114587127992,28.990908779996616,10.89150400493212,25.0,18.0,99.0,82.0,3.762365538089989,2.0
436.0078122,9.893914431781331,10.156209830824867,12.709326636579709,12.834503871818605,0.0427679918932943,0.0818251874403532,0.0461679653877548,0.0583910070344093,0.0718093864868699,0.0470632537407447,0.0776870990285939,0.0628431684032339,0.0745201996635252,0.0669986417308633,0.0386630790451315,0.0527906706187272,0.0930831064952814,0.0766887414250415,0.0720180802141807,0.1256392265791517,0.1768096729642836,0.2205330182150486,10.279433563636378,10.279433563636378,0.4419684606922822,0.8548143613633182,28.97033275136271,28.9919604351912,10.89150400493212,25.0,18.0,99.0,82.0,3.762365538089989,2.0
437.0078122,9.89525482810336,10.138646401437972,12.770637910847183,12.833587725534908,0.0406000585598288,0.0823963903074279,0.0470893415134392,0.0580681126714105,0.0744754701195799,0.046365424583657,0.0754561238206733,0.0600847986604686,0.0722647463499938,0.064949633376885,0.0411633281424566,0.0519473955079347,0.09429602484775,0.0746798606686601,0.072064546162341,0.122792352510294,0.1762771774867036,0.2190820679636051,10.302948863865613,10.302948863865613,0.4418858399429797,0.8547710945497243,28.969609829958216,28.9929778020744,10.887023071858312,25.0,18.0,99.0,82.0,3.762365538089989,2.0
438.0078122,9.895032152191972,10.130328456481411,12.798950070408122,12.843011290113829,0.0380450794161758,0.0841855810955049,0.0473134467360597,0.0585348686149014,0.0761981417029079,0.0457335792578016,0.0717224558444488,0.0582267156059337,0.0725449699609763,0.0608116442839196,0.0412073292808975,0.0525540303670921,0.0992491651495215,0.0745544594070122,0.0701243703536259,0.1139882961564866,0.1758918003692986,0.2169704905771999,10.311428327823684,10.311428327823684,0.4418221881258373,0.8547277719190486,28.96889143393572,28.994018681414456,10.887023071858312,25.0,18.0,99.0,82.0,3.762365538089989,2.0
439.0078122,9.89503292874985,10.134564849661956,12.775626132180012,12.91140235532401,0.0363879092844498,0.086424301566902,0.0470927087247905,0.0610143361368171,0.0769656447998323,0.0445060649488579,0.0681663021996603,0.0580589429196919,0.0745295939124209,0.0574101028830528,0.0395208512886765,0.0536831177744599,0.1068942811963168,0.0739913135465339,0.0675004577109081,0.1028703768927275,0.1758058922821031,0.2152514173411681,10.312885169060166,10.312885169060166,0.4417496902876578,0.8546843553411626,28.968227072571267,28.995169581350137,10.887023071858312,25.0,18.0,99.0,82.0,3.762365538089989,2.0
440.0078122,9.896185871070148,10.146267526459562,12.730534356747505,13.01276594903833,0.0362887890576278,0.0876646816649874,0.0468144612931214,0.0646401338877885,0.0772299078284444,0.0424649269747362,0.0663985603405511,0.0592460141105361,0.0773652112875637,0.0552778013293941,0.0373188031175137,0.0547631719806121,0.1142008761876643,0.0719248751666622,0.0652253395630449,0.0949090458819524,0.1759207162838581,0.2148026974596265,10.32028756478226,10.32028756478226,0.4416776231994188,0.85463549353464,28.967609503388218,28.996295358982746,10.884178387975892,25.0,18.0,99.0,82.0,3.762365538089989,2.0
441.0078122,9.89769173763814,10.158456325096571,12.708351431740343,13.09671084571788,0.0376920942622708,0.0875156367859565,0.0465645284824202,0.0669077857705941,0.0765925054125952,0.040563465590443,0.0663581648336355,0.0605516885608725,0.0806460946458159,0.0536107745943031,0.0352052677925047,0.054958971051429,0.1192767671395414,0.0698484564914093,0.0645290721022025,0.0939991881146314,0.1759275684803888,0.2158284026166072,10.329958108559502,10.329958108559502,0.4416081275728288,0.8545798492403236,28.96696264171607,28.99740369328469,10.884178387975892,25.0,18.0,99.0,82.0,3.762365538089989,2.0
442.0078122,9.898476108705632,10.16635876577343,12.714077728541223,13.137719716593,0.0398438654081036,0.0866671372922992,0.0458467768381911,0.0666826054047551,0.0743546887197835,0.0399855370729624,0.0677620480940419,0.0606937942517439,0.083558311531919,0.0514665241141662,0.0334531430268118,0.0536134017944688,0.122438989632061,0.0697200197280876,0.0657019786614278,0.0992508900829219,0.1755971444546639,0.2176773037342211,10.327698907508536,10.327698907508536,0.4415316848975082,0.8545298590114265,28.966308587196018,28.998525279755167,10.884178387975892,25.0,18.0,99.0,82.0,3.762365538089989,2.0
443.0078122,9.898332611574608,10.166723630148155,12.717994473470483,13.114074076029178,0.0411757141962157,0.0857377610005663,0.0444124901625387,0.0651267910015227,0.0709206451230193,0.0404731140315345,0.0706837895352747,0.0603322865424532,0.085321479313421,0.0490847932561684,0.032661612304224,0.0513897894769584,0.1233342387617365,0.0715345672010869,0.06675280304495,0.1058323096141483,0.1749886539859648,0.2191540030900841,10.310521977087358,10.310521977087358,0.4414522262226249,0.8544748539544963,28.965586833615315,28.99962986476749,10.885164456732976,25.0,18.0,99.0,82.0,3.762365538089989,2.0
444.0078122,9.897476281159053,10.157956935776571,12.693328661789153,13.021573242059969,0.0405078818961846,0.0850542332341374,0.0427809787303903,0.0638250102983214,0.0676162901343608,0.0408646846259528,0.0738737259081547,0.0611926201437759,0.0861341796543674,0.0476307106827872,0.0330696156125959,0.0497486256186192,0.1205843995605795,0.073670904145662,0.0658544602294212,0.1092724287194668,0.1743739081428185,0.2192469211966868,10.2865878296446,10.2865878296446,0.4413798479720617,0.8544222627376985,28.96494150266489,29.000774490018625,10.885164456732976,25.0,18.0,99.0,82.0,3.762365538089989,2.0
445.0078122,9.895926147874604,10.142403456033952,12.6372356225465,12.91485778514724,0.0385096602768389,0.0850693103637532,0.0415992348653988,0.063485002266479,0.0656363662761219,0.0408483118077688,0.0752286141819605,0.0629331542404079,0.0859174828905141,0.0475399144339815,0.0339240003459271,0.0497416279684385,0.115431544624337,0.0745211065990518,0.0642213200299295,0.1084413659237499,0.1740258915776888,0.2177890259944284,10.262201842886496,10.262201842886496,0.4413000635444482,0.8543805000836824,28.964421650668285,29.001897135237243,10.89201747521096,25.0,18.0,99.0,82.0,3.762365538089989,2.0
446.0078122,9.89360985100161,10.126252619632185,12.570116056569235,12.85736449574832,0.0368356740559188,0.0860416498849549,0.0413751278870211,0.0637669009914701,0.0655605311757679,0.0410821573042286,0.0740725329675779,0.0639056625894998,0.0838295221918894,0.0484078491666122,0.0348791703315075,0.0517270152327293,0.1112422951169348,0.0729407346410437,0.0637990097239224,0.1049957651710475,0.1741131308246988,0.2155111558504108,10.23692175647169,10.23692175647169,0.4412217818740634,0.8543332391769892,28.964054248029672,29.00300654068945,10.89201747521096,25.0,18.0,99.0,82.0,3.762365538089989,2.0
447.0078122,9.890882942388942,10.116176813624865,12.521643229133128,12.842374111277088,0.0365546411351797,0.0874059911854211,0.0426691445616283,0.0635810075556212,0.0669892710194637,0.0420279030351974,0.0713279336055557,0.0640253990768116,0.0804630097772952,0.0500534073131941,0.0368288801931322,0.0557452929739546,0.1091162852536076,0.0691326728798215,0.0642606034171853,0.1016396893569789,0.1747447731143518,0.213430207895175,10.210024428211472,10.210024428211472,0.4411286300690185,0.8542900054233866,28.963632082243645,29.004013086376546,10.89201747521096,25.0,18.0,99.0,82.0,3.762365538089989,2.0
448.0078122,9.88916005009158,10.114908911502493,12.510306039808077,12.823210249688394,0.0384461059150456,0.0882910525024704,0.0454741638693085,0.0624543505304798,0.0684612518119943,0.043178976973523,0.0685758439256026,0.0641901731834222,0.078081717893145,0.0523195258807558,0.0401285018737057,0.0616822567587731,0.1079495525838237,0.0655021821087128,0.0644097700623286,0.1002434921314083,0.1760433627514979,0.2120408130756079,10.184081428686437,10.184081428686437,0.4410456589267074,0.8542414191602213,28.96311403819493,29.005048764575783,10.89201747521096,25.0,18.0,99.0,82.0,3.762365538089989,2.0
449.0078122,9.8896918975178,10.119509109691547,12.529898021849666,12.788850393927708,0.0432518845729874,0.0885838959410815,0.0487671595772686,0.0611478683853466,0.0687260575154247,0.0435526749708835,0.0677966911544851,0.0645661599422803,0.0780102011485861,0.0545161169736356,0.0434169366511755,0.0677892790581076,0.1067774014006622,0.064254004290526,0.0642234023497431,0.0997240024840848,0.178096741594258,0.2109588949419922,10.15824675753096,10.15824675753096,0.4409558325574549,0.8541889296671635,28.962641927238867,29.00617229265652,10.906436693823489,25.0,18.0,99.0,82.0,3.762365538089989,2.0
450.0078122,9.890988234724238,10.126088573867731,12.569465432230388,12.76295066041278,0.0498674895143962,0.0889996846315033,0.0515590986892512,0.0604119706372095,0.0680717566144785,0.0430672524525988,0.0705595137247668,0.0650531589058223,0.0793413871880411,0.0558247111789211,0.044932602070384,0.0698683072394948,0.1047440146350822,0.0643777292719831,0.0645507831822405,0.0971568634466782,0.1807314926175866,0.2093841067077761,10.131114204893024,10.131114204893024,0.4408607342893939,0.8541360551411968,28.962189161251167,29.007259522609125,10.906436693823489,25.0,18.0,99.0,82.0,3.762365538089989,2.0
451.0078122,9.889896390462138,10.134758242691456,12.635548823180496,12.75873697678785,0.0546191268873999,0.0903096659342022,0.053639185100836,0.0605153425665078,0.0673951749608721,0.0425651814866509,0.0761830705294259,0.0656259096001799,0.0801772839488065,0.056009675478639,0.0444383671891279,0.0652914435852291,0.101992678979063,0.0632068870433683,0.0661625687094438,0.0925933249761833,0.1833051649182896,0.2069748218772306,10.111097688472482,10.111097688472482,0.4407676477126937,0.8540852832466576,28.961733661004544,29.00834054930759,10.906436693823489,25.0,18.0,99.0,82.0,3.762365538089989,2.0
452.0078122,9.885893470696224,10.1468279403348,12.718845337022367,12.768759541484467,0.05487573935827,0.0922660843660215,0.0546405331511642,0.061937355424647,0.0665903587568332,0.0425724845830476,0.0812209313631617,0.0654704990590838,0.0796294639241214,0.055670165342571,0.0434726984961806,0.0568745433669816,0.1001741139422389,0.0605781426391642,0.0687215776370997,0.0895716590755306,0.1848269273574564,0.2042272136510852,10.107626015480273,10.107626015480273,0.4406745900912716,0.8540441638106899,28.961281378579315,29.009485856313614,10.929614689504168,25.0,18.0,99.0,82.0,3.762365538089989,2.0
453.0078122,9.881903581279134,10.16019848433574,12.770242180230095,12.782352862188445,0.052238170267111,0.0931852326456859,0.0537636150486246,0.0645825921739692,0.0650645235590203,0.0431961536643526,0.0823517710593045,0.063313768749174,0.0785835109424757,0.0554933426636728,0.0435133424778414,0.0497434738093112,0.099511477355968,0.0591284065283382,0.0704202627049245,0.0897203221966732,0.1845688131040165,0.2019752760023427,10.113538899254197,10.113538899254197,0.4405934064193957,0.8540043066164793,28.9610667913039,29.010602878227967,10.929614689504168,25.0,18.0,99.0,82.0,3.762365538089989,2.0
454.0078122,9.880733935876975,10.170444538388448,12.758127397277775,12.792727922118488,0.0494392360607109,0.0916871222482609,0.0512083357475548,0.0667385650378783,0.0629474327034998,0.0443507756598191,0.0798118198705422,0.0595040084927202,0.0781497183853809,0.0553297658825053,0.0444592151101307,0.0463076042689845,0.098119579883226,0.0605966056987342,0.0698265230418845,0.0914468056832783,0.1827043434412163,0.2007246964665711,10.111909901632236,10.111909901632236,0.4404981644796499,0.8539787701426227,28.960898114362525,29.0116432334135,10.929614689504168,25.0,18.0,99.0,82.0,3.762365538089989,2.0
455.0078122,9.882740116504484,10.174912972180442,12.712654056347588,12.79405469948603,0.0467494536056949,0.0886711232397861,0.0486275644727132,0.0669079065174939,0.0611003060972226,0.045298942885488,0.0766323317001956,0.0567836192774925,0.0780107738208178,0.0547779087711183,0.0453207024102681,0.0459578428666683,0.0954873395543121,0.0638337172285251,0.0673693776346535,0.0937995568760337,0.1803834899879503,0.2005103153328858,10.097696925327654,10.097696925327654,0.4404100768034373,0.8539555771660003,28.960735652978904,29.012750888863856,10.962095027412312,25.0,18.0,99.0,81.0,3.762365538089989,2.0
456.0078122,9.886551236669057,10.173483772191826,12.677915549883313,12.780455452120393,0.0437614590155191,0.08630217201758,0.0474608917889596,0.0658663799442763,0.0605186211178247,0.0452940897652434,0.0752407015745556,0.057771635936823,0.0773177653130533,0.0542671081943679,0.0456683200226241,0.0469753969376832,0.0934341537292496,0.0665198683510243,0.0644645384368465,0.0975237559198496,0.1790746191261688,0.2011051666531012,10.07848649231427,10.07848649231427,0.4403271915657376,0.8539469215538721,28.96056778331497,29.01380778741809,10.962095027412312,25.0,18.0,99.0,81.0,3.762365538089989,2.0
457.0078122,9.89034432687587,10.165608368032563,12.659401162341336,12.750621678149296,0.0413343595646072,0.0857552255426551,0.0477626658649825,0.0652148540888469,0.0617605088804725,0.0446312316706817,0.0763893122363807,0.0623547738001945,0.0763227151545834,0.0544351042057051,0.0457861749978725,0.047804034070552,0.0932543439084826,0.0675734083442965,0.062338841380138,0.1027701364861815,0.17963299371316,0.2021301307641954,10.05986895626225,10.05986895626225,0.4402487582980581,0.8539391288207393,28.96042172593469,29.014969974025576,11.003675473740817,25.0,18.0,99.0,81.0,3.762365538089989,2.0
458.0078122,9.89257482476828,10.1516890778814,12.640910832507616,12.714194527150458,0.0402161105053721,0.086649272777777,0.0487582342866797,0.0650902899697399,0.0647231062954806,0.0441147192552875,0.0794787182765131,0.0683198698486763,0.0758794131537772,0.0549043538426282,0.0457623945136475,0.0477956749580014,0.0941703994621524,0.0674870755680334,0.0613799573291092,0.107105246576753,0.181800781285894,0.2031356403592401,10.042880452921429,10.042880452921429,0.4401734276009247,0.8539279366186696,28.96034374462042,29.0161023007238,11.003675473740817,25.0,18.0,99.0,81.0,3.762365538089989,2.0
459.0078122,9.892691097430108,10.13698846488184,12.616672177790928,12.68407652499376,0.0401518559127321,0.0878972890945765,0.0496284525868199,0.0643615129490801,0.0684958013847682,0.0441345558893629,0.0823991698813764,0.07333938189374,0.0763096875159582,0.0548513665622942,0.0452984048038005,0.0471665303424061,0.0952297371861386,0.0669234746669397,0.0613229237145006,0.1069190626950636,0.1845323102477145,0.203910295425431,10.03153579696413,10.03153579696413,0.4401032961142563,0.8539200707048391,28.96025116119089,29.01716678385329,11.05337220226622,25.0,18.0,99.0,81.0,3.762365538089989,2.0
460.0078122,9.89159917441062,10.126921817374164,12.584752750985034,12.656490243114902,0.0406470868140014,0.0887864178924151,0.0496945637463686,0.0625400282208454,0.0713149840473939,0.0446500128248376,0.0832537440571151,0.0755433248849307,0.0778173550806641,0.0543981661929759,0.0445557771838058,0.0465788432631073,0.0970433745500317,0.0658642782406986,0.0621282558096663,0.10246340872844,0.1868839013060264,0.2047536853485338,10.031991172373443,10.031991172373443,0.4400328828749837,0.8539203302811508,28.96015489357734,29.01829917419197,11.05337220226622,25.0,18.0,99.0,81.0,3.762365538089989,2.0
461.0078122,9.89081318504594,10.120781801779394,12.535232435110297,12.617401023224945,0.0414942700853729,0.0895012419399791,0.0487957781095928,0.0607313535200644,0.0715262581933948,0.0455469851034968,0.0828904759773005,0.0749337426675962,0.080596085876056,0.0543871333752929,0.0443232600675956,0.0468442743883445,0.1001172121720811,0.0645953736958518,0.0639686620949323,0.0984907148274696,0.1886768399462475,0.2062338294220137,10.04264649682882,10.04264649682882,0.4399561900285851,0.8539258646722065,28.960119640445228,29.019476265639,11.05337220226622,25.0,18.0,99.0,81.0,3.762365538089989,2.0
462.0078122,9.890979097226298,10.11692989051007,12.471374552165129,12.579699808227604,0.0429861774299131,0.0906172676712085,0.0477438240166106,0.0600969644192048,0.0690908643351964,0.0466359261881298,0.0838668636630414,0.0753115808325307,0.0836734286128022,0.0549735573111427,0.0448819885397532,0.0485840520480192,0.1028035821182391,0.0643296233248873,0.0666420386778359,0.0981539732817766,0.190286713505354,0.2085974175472218,10.052511870438154,10.052511870438154,0.4398803793974207,0.8539436943190822,28.960059269354872,29.02054002407344,11.10945500947818,25.0,18.0,99.0,81.0,3.762365538089989,2.0
463.0078122,9.89127848703782,10.11836358349632,12.422305997042832,12.57961836806993,0.0456907713970664,0.0918535332773575,0.0474134651584423,0.0604942277832868,0.0655955948143511,0.0472717092030806,0.0869475815637158,0.0800634731202797,0.0852796001540026,0.0554151159522623,0.0455180220705648,0.0519948250412231,0.1030903479678011,0.0655363932898415,0.069618964686142,0.100364922444155,0.1918188717949483,0.2115210125227869,10.05436380467685,10.05436380467685,0.4398154370951802,0.8539559015320413,28.959994364096307,29.021601793175883,11.10945500947818,25.0,18.0,99.0,81.0,3.762365538089989,2.0
464.0078122,9.890687211043794,10.126801112542122,12.411194002126331,12.621721620609057,0.0490399883506261,0.0918674266821753,0.0475706668018904,0.0616574763683809,0.062423533504969,0.0465651854634311,0.0900506744260856,0.085693351558353,0.0848271528790229,0.055332005218028,0.0457317080642987,0.0566385742453929,0.1019095941826807,0.0670855963651628,0.0723805079592241,0.1031968895521193,0.1927147876672835,0.2144440283018606,10.0542645335214,10.0542645335214,0.4397476333390092,0.8539890363401429,28.95996222636813,29.02266024755956,11.16955573473909,25.0,18.0,99.0,81.0,3.762365538089989,2.0
465.0078122,9.88963370783376,10.137716600170732,12.431001590374535,12.66447519317037,0.0508177860927813,0.0899845540380989,0.047486249244988,0.0640263860253743,0.0599831136646099,0.0445609090531179,0.090766002226154,0.0854660597348571,0.0831671247162178,0.0551357986671815,0.0459849703665078,0.0607711563736444,0.1022898012868233,0.0678920446285157,0.0745188428064947,0.1051497813881337,0.1923331180091126,0.2169791790128448,10.0616601591981,10.0616601591981,0.439679521914257,0.8540243336332652,28.960022873430454,29.023714083055275,11.16955573473909,25.0,18.0,99.0,81.0,3.762365538089989,2.0
466.0078122,9.88919212762152,10.144729579656612,12.46488648219735,12.673671227281874,0.0496406190672657,0.0872804547027435,0.047102230229351,0.067575138288085,0.0588149332491301,0.0426440786656213,0.0891571512464782,0.0789929861203893,0.08144102662049,0.0551238611707707,0.0466509763322889,0.0617170212551909,0.1058391560672055,0.0678861575222867,0.0760092102469333,0.1044068015984942,0.1907985781843788,0.219048186481944,10.075608464833005,10.075608464833005,0.4396160055739371,0.8540639269965355,28.96003145365347,29.024783879479266,11.230842873920489,25.0,19.0,99.0,81.0,3.762365538089989,2.0
467.0078122,9.889674994201387,10.145059427542328,12.508933798064334,12.66808816225926,0.0467905153087792,0.0854428617584095,0.0469999673833387,0.0711236798237708,0.0594281737357287,0.0420619466489469,0.0872885591794554,0.0723635385173059,0.0805683224296785,0.0553048207545597,0.047259928339345,0.0588552332087727,0.1122685630132933,0.0672597770380286,0.0774045315560799,0.1015284603403896,0.1889822078970211,0.220684045397883,10.08789956769828,10.08789956769828,0.4395463722228646,0.8541138138567362,28.96007312444042,29.02588391664847,11.230842873920489,25.0,19.0,99.0,81.0,3.762365538089989,2.0
468.0078122,9.890921377570088,10.140938454564775,12.562179197529971,12.691566579369033,0.0442252601872931,0.0855289265999994,0.0476258785002025,0.0731134819242943,0.060780628255216,0.0425128892402686,0.0860973354978762,0.0702834068881438,0.0808547022166553,0.0558610533360479,0.0473101963801714,0.0549567294904201,0.119357816119848,0.0660010121867593,0.07886358883863,0.1000031393135897,0.1876663030786172,0.2217523610733447,10.094564923275318,10.094564923275318,0.4394851215727521,0.8541730377184414,28.960213304690715,29.02693066722165,11.290246308824091,26.0,19.0,99.0,81.0,3.762365538089989,2.0
469.0078122,9.892349865453818,10.136854848776954,12.608846458087742,12.741829804296067,0.0424865081883615,0.0872143325716116,0.0486909689925533,0.0732636805962564,0.0612455362577362,0.0427566914947514,0.0844987594564097,0.0719299560666825,0.0818407397443492,0.0567366380551249,0.0468486262874975,0.0524130962381387,0.1219054486373978,0.0644894300739446,0.0792471387614251,0.1011657446258723,0.186948826676234,0.2219554749021727,10.096663995419496,10.096663995419496,0.4394257687922772,0.85424364710172,28.96028016755004,29.02798530059043,11.290246308824091,26.0,19.0,99.0,81.0,3.762365538089989,2.0
470.0078122,9.893105960704563,10.135473495778978,12.631756728487252,12.770452788824365,0.0416722208618937,0.0886858406090295,0.0492644913021144,0.0731904003898463,0.0608772523605198,0.0422930872778086,0.0823368639622081,0.0730368244834131,0.0830782031600816,0.0574164682660949,0.0461090128844122,0.0507289547363829,0.1164084395803,0.0641932323854706,0.0779031021312707,0.1034717957212028,0.1864525516901538,0.2212028770440464,10.090528310336987,10.090528310336987,0.4393762403765545,0.8543202277568375,28.960305079412244,29.029019088932845,11.290246308824091,26.0,19.0,99.0,81.0,3.762365538089989,2.0
471.0078122,9.893588187134103,10.137024633029576,12.638005033131408,12.75807967871071,0.0425297429426476,0.0884748626246435,0.0487396830357731,0.0741079623682211,0.0607700403165679,0.0418242832423012,0.0814662410161305,0.0707451221259379,0.0849156973177021,0.0575923821485858,0.045353332181291,0.0488787920492729,0.1062975442951336,0.066480931561164,0.0763127706434871,0.1066420678294792,0.1858376049042239,0.2197979836197066,10.068562470503505,10.068562470503505,0.4393369931438931,0.8543986385069413,28.96037774589612,29.030014970422098,11.344708869080176,26.0,19.0,99.0,81.0,3.762365538089989,2.0
472.0078122,9.89526109046732,10.139753048501246,12.644632016174144,12.73396135086412,0.0452406111523649,0.0871607518415498,0.0476160472839082,0.0748507265746386,0.0611259141716377,0.0421765330541492,0.0826027866201316,0.0664818814639767,0.0881493488882667,0.0572699608111477,0.0448642707397289,0.0470664296927602,0.0977309111215957,0.0700428375601144,0.0757192969433199,0.1102316365258997,0.1849699155116765,0.2180498453345824,10.037512996785091,10.037512996785091,0.4392932122601038,0.8544885476190834,28.96048807813063,29.031058197762757,11.344708869080176,26.0,19.0,99.0,81.0,3.762365538089989,2.0
473.0078122,9.89809270241652,10.142562972667584,12.6564717502218,12.735341413149232,0.0481090564278214,0.0863103220385425,0.0468286783016807,0.0735070212221405,0.0613318642463008,0.0434467306203929,0.0838389953010564,0.0633527857629458,0.0922397662036734,0.056432592433567,0.044624780742635,0.0457734685475963,0.0930725752233792,0.0713917585315554,0.0751039920173078,0.1109442755469111,0.1837722874110701,0.2159074726146581,10.023362718296958,10.023362718296958,0.4392508625083575,0.8545780336143163,28.96055720348592,29.03216845447885,11.391437566928396,26.0,19.0,99.0,80.0,3.762365538089989,2.0
474.0078122,9.900138474237425,10.152302653684025,12.682912705832242,12.787230841467176,0.049260641574471,0.0863696866884277,0.0465265359249403,0.0699568804126101,0.0610537768608432,0.0452239606237674,0.0833019518029221,0.0620835451454204,0.0943782863312954,0.0553160634541158,0.0442083336875506,0.0450951155690282,0.0907884217445159,0.0689818843877517,0.0734627682021916,0.1075277113826284,0.1821717260258322,0.2132798488789852,10.04654535711302,10.04654535711302,0.439201110025332,0.8546659618464866,28.96069396150256,29.03320830482764,11.391437566928396,26.0,19.0,99.0,80.0,3.762365538089989,2.0
475.0078122,9.900023892178414,10.176329605655704,12.72947181910674,12.881553246220417,0.0493672814285353,0.0863694425658382,0.0461519951364322,0.0655661783239462,0.0607928871391978,0.0468398522744241,0.0810695854885909,0.0613528378330004,0.0923222328547383,0.054588687125962,0.0432929229728282,0.0451255670660308,0.0887916355863886,0.0650198211262597,0.0717851966717768,0.104528614151195,0.1802658778560344,0.2105462640123136,10.096932872702537,10.096932872702537,0.4391503044688163,0.8547605737151736,28.960896562525907,29.03413173157209,11.428127619254797,26.0,19.0,99.0,80.0,3.762365538089989,2.0
476.0078122,9.898799506852422,10.20260619995887,12.762387626306188,12.95532937790579,0.0501804376285521,0.0854272808002424,0.0454648570931353,0.0612700055520812,0.0617009963212719,0.0473344939311777,0.078271756177153,0.0606643150333489,0.0873388494807758,0.0547835456187087,0.0422910638616396,0.0459693991427017,0.0865414285538747,0.0623738038161554,0.0713950024408426,0.1068010426462831,0.17845596394677,0.2083720689494841,10.14000862426798,10.14000862426798,0.4391008140766448,0.8548584905368818,28.96104388694588,29.035049383965475,11.428127619254797,26.0,19.0,99.0,80.0,3.762365538089989,2.0
477.0078122,9.898400911162364,10.207687108481444,12.735963651210234,12.948681921451165,0.0509368951435176,0.0839513732380829,0.0448775960591508,0.0577229824101636,0.0643638562771901,0.0462812647985408,0.0760260783315741,0.0608734531133551,0.082188443474096,0.0557526205126863,0.0421027404671835,0.0472028949114403,0.084744553794178,0.0613071507608506,0.0720539526113917,0.112606565014895,0.1773287726883838,0.2070414703690194,10.151888702875969,10.151888702875969,0.4390498973150063,0.854966987294478,28.961156160934568,29.035959228330803,11.453136734164064,26.0,19.0,99.0,80.0,3.762365538089989,2.0
478.0078122,9.898784194318514,10.188059509097604,12.65179499630812,12.8734162537623,0.049411473582024,0.0830907881141827,0.0449629809385913,0.0565840003583102,0.068002216275572,0.0444206989007226,0.0750813840082233,0.0622961532133946,0.0780737804311564,0.0569704988031077,0.0432105670368729,0.0485345919186353,0.0838539095261697,0.060248006019884,0.0727416052222301,0.1155379052351279,0.1773256503935324,0.2062604126606949,10.142390612708196,10.142390612708196,0.4390012690580637,0.8550768483122702,28.96124067812484,29.03692683146813,11.453136734164064,26.0,19.0,99.0,80.0,3.762365538089989,2.0
479.0078122,9.898056012345226,10.162218052015325,12.555037644354725,12.786041598354434,0.0456188868175104,0.0834695114179968,0.0461360937947268,0.0592701395011792,0.0715017019841018,0.0425995327536076,0.0754182946219223,0.0640885529318257,0.0748767060611785,0.0583046775896671,0.0454718727208059,0.0508554916500968,0.0836123508016067,0.0586217724216317,0.07304322746808,0.113284685841989,0.1784207757952006,0.2056224991978711,10.133245559964056,10.133245559964056,0.4389585586657864,0.8551823955812479,28.96139537003993,29.037974114450595,11.453136734164064,26.0,19.0,99.0,80.0,3.762365538089989,2.0
480.0078122,9.89543279386518,10.144527096499637,12.48989078738416,12.726126205093143,0.0417393145765439,0.0849361047829262,0.0486741581692121,0.0642458720266462,0.0741382617261038,0.0410219450689675,0.0760398541256096,0.0655761166552259,0.0723154840936768,0.0600324340633749,0.0484965000342265,0.0544887545151416,0.0839474825350807,0.057235241448445,0.0725078135017348,0.1098871001073787,0.1800419507384359,0.2049507743002176,10.126466149238258,10.126466149238258,0.4389127130116051,0.8552874616181179,28.96156788171798,29.03895080930908,11.465594651927164,26.0,19.0,99.0,80.0,3.762365538089989,2.0
481.0078122,9.892178053927502,10.135232966035186,12.478884025919866,12.695031612410478,0.0393414437689013,0.0869010718265627,0.0521197072963499,0.0675860277627913,0.0748068914078791,0.0398332866097173,0.0757350293951293,0.0662439928660111,0.0705150821092374,0.0620064080497437,0.0515539819278798,0.0572836890458236,0.0851572432446057,0.0565076544327369,0.0701148349371082,0.1085325734228504,0.1814416560700018,0.2041543351876143,10.113520423790217,10.113520423790217,0.4388788063783062,0.8553943875335506,28.96168021641057,29.03992548618145,11.465594651927164,26.0,19.0,99.0,80.0,3.762365538089989,2.0
482.0078122,9.889444567866295,10.130149516449723,12.516988179408518,12.674791353455673,0.0383029352925597,0.088381110968889,0.0548298511840402,0.0668916754129349,0.0726252142690089,0.039467685872757,0.0746649069840573,0.065843066463784,0.0700930337335089,0.0632536849945537,0.0534114957924892,0.0569078320518455,0.0867510102654904,0.0560955301722849,0.0662326102815602,0.1079633253367543,0.1823209916279861,0.2030678821064314,10.102125638110392,10.102125638110392,0.4388289985355587,0.8555003842453386,28.961798418500983,29.040851420378736,11.46544201883093,26.0,19.0,99.0,80.0,3.762365538089989,2.0
483.0078122,9.887043818204845,10.127306535123902,12.573095624798594,12.665784776583152,0.0382629332060093,0.0884374280593099,0.0557010171653388,0.0632179435915444,0.0685188045965674,0.0403531336644702,0.0747751960690956,0.0671926937707448,0.0715235602260277,0.0627495033124267,0.0529764080049481,0.0537991423888419,0.0872719765448145,0.0556038688676348,0.0633080187951046,0.1064820796961575,0.1830512959719209,0.2016293355923098,10.110803185678314,10.110803185678314,0.438779418192968,0.8555966313809563,28.96186873149021,29.041719269288475,11.46544201883093,26.0,19.0,99.0,80.0,3.762365538089989,2.0
484.0078122,9.88483425612046,10.127683860178626,12.616731837402778,12.691610123249232,0.0401789809512539,0.0869571834431238,0.0553349191687094,0.0590189391842736,0.0642901444319701,0.0424594052848909,0.0775911489914589,0.0745162667582288,0.0746675500098062,0.0605501980128489,0.0503696857602752,0.0504818105984727,0.0859800617600209,0.0548300669334654,0.0629978211583947,0.1048751456418075,0.1840554015555595,0.2000437663040431,10.145026324883222,10.145026324883222,0.4387328656639146,0.8556977021365749,28.961945941469317,29.04254839260614,11.453401539613033,26.0,19.0,99.0,80.0,3.762365538089989,2.0
485.0078122,9.883719480255603,10.134005402299625,12.638554282673391,12.76180656737534,0.0453336031218224,0.0846454273651677,0.0543627258282452,0.0560614313636986,0.0607799888108277,0.0449548536383796,0.0815580694010819,0.0854780746434002,0.0791789691615478,0.0578084219529559,0.0471475115007324,0.0491921798250476,0.083867002664913,0.0541432122071353,0.0639025677995649,0.1040699747850793,0.1849584338920387,0.198561364743339,10.193424813457458,10.193424813457458,0.4386858327377206,0.8557920936811825,28.961980948079237,29.04334326979193,11.453401539613033,26.0,19.0,99.0,80.0,3.762365538089989,2.0
486.0078122,9.884479351598848,10.146168890450715,12.64400302861678,12.84344647371019,0.0526153482355593,0.0823374113714982,0.0528351244675957,0.0550932397589017,0.0583634051356482,0.0463118651312406,0.0825365857497855,0.0907670457619446,0.0842301542719321,0.05581566439626,0.0450322637723768,0.0505729624653541,0.0822835259835158,0.0544786524281672,0.0632506490051506,0.1028108781275756,0.1846766235487721,0.1971314078482062,10.238562099384772,10.238562099384772,0.4386356605952624,0.8558837516964093,28.96195756655325,29.04424763045764,11.430891432273816,26.0,19.0,99.0,80.0,3.762365538089989,2.0
487.0078122,9.88650992741404,10.158651372113576,12.65016375987925,12.877489280836985,0.0578493321009959,0.0806574860309551,0.051315831404606,0.0554685467543499,0.0579915030831746,0.0455271737489684,0.0783880557727831,0.0852402133621543,0.0875639307680864,0.0551068984474891,0.0444215383592602,0.0533376331284305,0.0811243388657819,0.0561160779272206,0.0603857778647092,0.0994701723049248,0.1825864192103942,0.1954601353744036,10.267522052939944,10.267522052939944,0.4385924261685374,0.855964587153433,28.96200324195935,29.04503109816529,11.430891432273816,26.0,19.0,99.0,80.0,3.762365538089989,2.0
488.0078122,9.887938475895298,10.166182793825229,12.67741983055426,12.844252358473469,0.0574958636891433,0.0800049017870667,0.0506687469412867,0.0553629468606996,0.0601800653523909,0.0433639755151784,0.0722181402041023,0.0741115824895665,0.0870113982285064,0.0553918786510475,0.0445226291958505,0.0549174923868825,0.0792939886675446,0.0579283370017858,0.0573819408716225,0.0948952318556388,0.1794640390573586,0.1934994501660202,10.281516828963584,10.281516828963584,0.4385451556020707,0.8560459202647638,28.962109208518523,29.04586288839859,11.430891432273816,26.0,19.0,99.0,80.0,3.762365538089989,2.0
489.0078122,9.887466813046894,10.169080075423295,12.717188619973538,12.793021180596703,0.052549117246562,0.080503304015133,0.0515848970497622,0.0535193696392461,0.0637545794310027,0.0415621954091908,0.0690944984366148,0.065940152705009,0.0834687268064285,0.0566870577835545,0.0447976872473204,0.0537766942989434,0.0765871363044909,0.0584716318192236,0.0564083845045918,0.0919340629933573,0.1770412097922275,0.1917865686012777,10.289738753787251,10.289738753787251,0.4384970430109974,0.8561259447753876,28.962131671150185,29.046723235992392,11.399895527193967,26.0,19.0,99.0,79.0,3.762365538089989,2.0
490.0078122,9.885918003389143,10.169773760177574,12.73038271169411,12.77781445556331,0.0470834707369065,0.0820920251456009,0.0546268398657938,0.0504193215564452,0.06722123142365,0.0410925362241133,0.0707729410202458,0.0641529017641216,0.0801877919365772,0.0596194802185659,0.0454773247726231,0.0513545163568653,0.0742379553223847,0.0575484666743614,0.0577725304968566,0.0920103042332273,0.1766198476010388,0.191146512429421,10.295041300317884,10.295041300317884,0.4384439486986855,0.8562137047958512,28.962043759960277,29.04752271282375,11.399895527193967,26.0,19.0,99.0,79.0,3.762365538089989,2.0
491.0078122,9.885118935341778,10.168875294857582,12.700897605332404,12.81059997807427,0.04397027366076,0.0845425365830342,0.0589692775645602,0.0477090693728691,0.0703281080339348,0.0415262706398619,0.0746610643892465,0.0663731278216199,0.078943473424499,0.0634914654178992,0.046631883574143,0.0511782814480102,0.0739416042313651,0.0563124560268503,0.0602796456414518,0.0935342452226462,0.1781661575321012,0.1919965756047385,10.293415159061745,10.293415159061745,0.4383992351405794,0.8563173605715882,28.96190395412153,29.04829813193012,11.362805714445829,26.0,19.0,99.0,79.0,3.762365538089989,2.0
492.0078122,9.886227390001942,10.16574118416229,12.661430127431432,12.882099114251735,0.0430436906243009,0.0872736930856418,0.0618901433409664,0.0467724918314377,0.0728514353353072,0.0416457580527739,0.0769056320299728,0.0690267727648682,0.0787728651589826,0.0656627181018661,0.0477342707405025,0.0554824035431747,0.0769524336989369,0.0558028023329213,0.0623224385825229,0.0940716812522222,0.1806628366673731,0.1939727452156633,10.277249680186664,10.277249680186664,0.438373040561815,0.8564202667866463,28.961679690431364,29.049077717980737,11.362805714445829,26.0,19.0,99.0,79.0,3.762365538089989,2.0
493.0078122,9.889172272449466,10.158667174310748,12.646020318035427,12.964612786007455,0.042339609293407,0.0895394713392132,0.0616742293572732,0.0476998050594423,0.0737710900927146,0.0408131045153614,0.0763288451128602,0.0712841717965487,0.0782152462998707,0.0645678135765367,0.048474146689684,0.0616187268496761,0.0833368386879939,0.0560376264903948,0.0626660359763732,0.0927819248770215,0.1831821410837909,0.1962178148087949,10.240581492435602,10.240581492435602,0.4383425455785568,0.8565188511776741,28.961479833453527,29.04982633431485,11.322251377411996,26.0,19.0,99.0,79.0,3.762365538089989,2.0
494.0078122,9.892685213726622,10.146330542877449,12.644941757087652,13.00906701281846,0.0407432552021426,0.0907580865313388,0.0594882079019578,0.0500080407560267,0.0724583721930328,0.0397240123399289,0.0750915430346584,0.0751925001457766,0.0772311597803705,0.0617144609164839,0.0491427930648841,0.0638818862842142,0.0912554716367889,0.0568470900966236,0.061330220245164,0.0903439696168856,0.1855328968232246,0.1979987577692032,10.189026196059372,10.189026196059372,0.4383107993111499,0.8566095673657516,28.96131701285586,29.05057509243217,11.322251377411996,26.0,19.0,99.0,79.0,3.762365538089989,2.0
495.0078122,9.895081149676434,10.131158039787657,12.627061516750278,12.983596064197153,0.039189324116227,0.0906105139284846,0.0570815637146341,0.0534790990290191,0.0695270493748534,0.0394747965607555,0.0756912663592045,0.0829770937666637,0.0767658426797966,0.059554891604597,0.0497925859311016,0.0606864850197644,0.0978063685187106,0.0579872808680413,0.0599704252744525,0.0879727969221578,0.187895209124215,0.1990736217332384,10.138615878029665,10.138615878029665,0.4382786931421111,0.8567056735535992,28.96105150505492,29.05131816318957,11.280927962049557,26.0,19.0,99.0,79.0,3.762365538089989,2.0
496.0078122,9.89556768715112,10.119139503898564,12.583172663764469,12.90273577238995,0.0390162179688338,0.0893983879138323,0.054712802598083,0.0574196214750694,0.0662589237436819,0.0403754325036168,0.0782496466035992,0.0933173210927762,0.0772608282526872,0.0586633827139829,0.0498232460441915,0.0558571328079572,0.1015156335708134,0.0585769305243809,0.0601729455392252,0.0868133420597986,0.1900301262471487,0.1996229109487896,10.103805339442454,10.103805339442454,0.4382436978078241,0.8567979945689521,28.9607854282592,29.05210613326348,11.280927962049557,26.0,19.0,99.0,79.0,3.762365538089989,2.0
497.0078122,9.894608465650382,10.115316923156966,12.527489087506147,12.81301507129164,0.0400724536016079,0.0882227062777777,0.0521461644537547,0.0609196457913342,0.0634627906432852,0.0416394460025617,0.0804822446777601,0.0999070262135574,0.078127905488532,0.0579233271597277,0.0488552139676464,0.0523574282185492,0.1031585495617094,0.058380316249866,0.061574328945147,0.0868830791182647,0.1911142729703923,0.2000243675729138,10.09073973425273,10.09073973425273,0.4382159577983575,0.8568986371705741,28.96058487605901,29.0528265194994,11.280927962049557,26.0,19.0,99.0,79.0,3.762365538089989,2.0
498.0078122,9.893057010305323,10.120092348499158,12.480051053904504,12.759070415392296,0.041153597028794,0.0879519048393684,0.0500136807144759,0.064359993842575,0.0613487911402523,0.0420188883225495,0.0802108081585066,0.0972367999613761,0.0787848474420585,0.0568261088226543,0.0473936002887445,0.0498283834250014,0.1034789094709975,0.058551582746098,0.0629163735680634,0.0873687917632046,0.1904392031785819,0.2007574613204679,10.098064241546789,10.098064241546789,0.4381891897597888,0.8570004153691303,28.96030082146081,29.05347843360542,11.241434040522028,25.0,19.0,99.0,78.0,3.762365538089989,2.0
499.0078122,9.891574771880702,10.130604596433711,12.46420898201354,12.766372119893187,0.0415896084853939,0.0882128208480493,0.0492972747665868,0.06832063289699,0.0600427766019339,0.0410830539710445,0.0778024969858197,0.0875923392189006,0.0795985813203655,0.0563275120417301,0.0462737556522879,0.0475761023721326,0.1021274821892426,0.0599423951653602,0.0641613605765994,0.0889904709383031,0.1881227456693697,0.2023088941003916,10.117475601290352,10.117475601290352,0.4381725504903777,0.8570921364277101,28.960048947497302,29.054086215414504,11.241434040522028,25.0,19.0,99.0,78.0,3.762365538089989,2.0
500.0078122,9.890829816754094,10.143279672260634,12.501766719987376,12.83899371783125,0.0415790936230002,0.0881367070802209,0.0500792738170744,0.0714769301449413,0.0593471045001769,0.0395148947254836,0.0753968804783289,0.0776191827900582,0.0810163363229649,0.057620425081389,0.0458335519487286,0.0461098510876576,0.0999898246311069,0.0619918337301876,0.0662699624679444,0.0940555860091875,0.1850359432616805,0.2047794970239858,10.13475510469652,10.13475510469652,0.4381565821460948,0.8571848021774479,28.95976858250269,29.054772205145287,11.20612401630614,25.0,19.0,99.0,78.0,3.762365538089989,2.0
501.0078122,9.89101881216053,10.1547078655969,12.59858692588742,12.950374658784222,0.0412658630887265,0.0876055113659827,0.051389560600571,0.0720952564503725,0.058972310230629,0.0382146356352946,0.0745544979044718,0.0704187850457565,0.0822772194169453,0.0606382235586207,0.0457433753391533,0.0459416513285425,0.09912276942177,0.063649988579775,0.0692501622565498,0.1023334516643173,0.1821722364717191,0.2074073827269445,10.140185590827995,10.140185590827995,0.4381400694141432,0.8572805928573882,28.95953038032189,29.055479462750466,11.20612401630614,25.0,19.0,99.0,78.0,3.762365538089989,2.0
502.0078122,9.891078428030264,10.164544333015272,12.728621117655688,13.061249869735738,0.0406355335991734,0.0870415286749364,0.0520080291884564,0.0704682933610696,0.0594741277356098,0.0379151121680166,0.0755742413861576,0.0653528535773664,0.0822598846400706,0.0631758859974892,0.0451584932313213,0.0465008443336606,0.0994032622383727,0.0644444042141654,0.0716981238655512,0.1082988394302949,0.1801614626741401,0.2087426242610908,10.141340794637497,10.141340794637497,0.4381305978566009,0.8573686669843317,28.959322766387945,29.056150000286163,11.20612401630614,25.0,19.0,99.0,78.0,3.762365538089989,2.0
503.0078122,9.88996607105586,10.175626008751726,12.843121177076265,13.16007116803426,0.040227146163777,0.0866079314336909,0.0511406354988918,0.0681877572651263,0.0615036048251692,0.038980822122551,0.0780200566493148,0.061996441881878,0.0812380716912663,0.0624764681411148,0.0434349745123009,0.0468006533499261,0.098908408714228,0.0643604755498302,0.0726822539488744,0.1062160857568224,0.1791520117951989,0.2076860118399082,10.153346993784012,10.153346993784012,0.4381233197583428,0.8574537082622382,28.959075849717177,29.056936401945865,11.176982378978504,25.0,19.0,99.0,78.0,3.762365538089989,2.0
504.0078122,9.888058747568218,10.186293810485433,12.912072591009691,13.24414264513089,0.0407675900759602,0.0864097199647446,0.0489950439229042,0.0662348928706475,0.0642790486891704,0.0406029787267972,0.0805101113319133,0.0611389742381192,0.0805211793476754,0.058834159365118,0.0413262857738779,0.046802391654314,0.0970092971942633,0.0632370450941578,0.072206396557346,0.0979840391415868,0.1788739187841167,0.2044366227959325,10.175493736537351,10.175493736537351,0.4381143613132432,0.8575276747437601,28.958804504908148,29.057686812791868,11.176982378978504,25.0,19.0,99.0,78.0,3.762365538089989,2.0
505.0078122,9.886466114498228,10.188731706747314,12.934620334227862,13.277875941237149,0.0420260123391488,0.0867655532952722,0.0471860476377072,0.0645836391673656,0.065886916103901,0.041132930227927,0.0807153754074968,0.0634523777819707,0.0810255374295802,0.0554489477241918,0.0404921576424584,0.0470445351708681,0.0945433264180795,0.0608869750009954,0.0695489101838002,0.0910725314065943,0.1788212549702198,0.200330406619944,10.191786485911107,10.191786485911107,0.4381122910127113,0.8575953447964826,28.958465834489463,29.05836705183734,11.155524988400131,26.0,19.0,99.0,78.0,3.762365538089989,2.0
506.0078122,9.885946006839529,10.180111975874777,12.915539852424136,13.230249805105172,0.0426902136466816,0.0876249735313322,0.0477682123766946,0.0629224173499145,0.0651198566299337,0.0397842002237598,0.0777217491804965,0.0677095937120361,0.0826557426962207,0.0544141116282418,0.0415937266842497,0.0473490177768788,0.0926502658845745,0.0577126952856933,0.0642512017764096,0.0892632042100968,0.1785272996323675,0.1967712668485706,10.190976409316884,10.190976409316884,0.4381098255943572,0.8576590949091365,28.958085400895875,29.05905608976699,11.155524988400131,26.0,19.0,99.0,78.0,3.762365538089989,2.0
507.0078122,9.886518415745394,10.166890117674107,12.865486844219973,13.129737468476971,0.0417785263661576,0.0885704251192309,0.0514435100259579,0.0612391846227326,0.0629059147527029,0.0372118919652018,0.0737257673564891,0.0707028257850022,0.0837146295481719,0.0553800681423018,0.044003627759691,0.047210347861082,0.0923924713661137,0.0545563588729087,0.0585053359127239,0.0900588396184861,0.1777730335120469,0.1943965428487225,10.176031955858164,10.176031955858164,0.4381191543839903,0.8577219951488015,28.95762481302931,29.05981785159175,11.155524988400131,26.0,19.0,99.0,78.0,3.762365538089989,2.0
508.0078122,9.887850468138618,10.15615279996392,12.812985194451958,13.036722212673054,0.0398977059685155,0.0892933373937374,0.0568464580561942,0.05985555129596,0.0612465124696134,0.0347054951153455,0.0714525618717839,0.0698774389332312,0.0820106013910772,0.0571364297643842,0.0466783709946933,0.0468575768929916,0.0939639931721077,0.0521573213418186,0.0554381885092313,0.0898794969904164,0.1765772768063783,0.1930818045876628,10.161890074006587,10.161890074006587,0.4381148157555355,0.8577843987463831,28.95725636557189,29.06053787679911,11.142732652051151,26.0,19.0,99.0,78.0,3.762365538089989,2.0
509.0078122,9.889449123879311,10.150675513378864,12.78303764336009,12.98547355160116,0.0384666486390022,0.0891212092910642,0.0610655944776739,0.0593061768317832,0.0607441232897403,0.0334858615590047,0.0712019553687967,0.0653692584348984,0.0783492237916685,0.0584106059908802,0.048319994372537,0.046849485206083,0.0964612580086543,0.0514079648130577,0.0557764840226055,0.0880258682865602,0.1751300419564275,0.1923996626380334,10.170927285342744,10.170927285342744,0.4381173453976676,0.8578494705316105,28.956949120955663,29.061186740668926,11.142732652051151,26.0,19.0,99.0,78.0,3.762365538089989,2.0
510.0078122,9.890850567782383,10.150914468418538,12.767441014682053,12.979013718405684,0.0379244473535076,0.0873529580323596,0.0615836593389448,0.0595046050493614,0.0606139170021984,0.0340026701872805,0.0718351643608366,0.0597367905604556,0.0761309392900082,0.0582111122737183,0.0478293464536796,0.0472307057681083,0.0987126320899187,0.0530750563448257,0.0578950470898082,0.0854128537534179,0.1738794905901668,0.1919513140513455,10.216109713332882,10.216109713332882,0.4381224963948182,0.8579142020895808,28.95663562180778,29.061791787158523,11.139021486184047,26.0,19.0,99.0,78.0,3.762365538089989,2.0
511.0078122,9.891876083023108,10.154785048551368,12.74167759900732,13.005667982734993,0.0376554512028558,0.0850141811234055,0.0588096047075877,0.0593089085133951,0.0605813735414172,0.0353770386933587,0.0726403875907944,0.0571957849283162,0.0767028692712412,0.0566554030169687,0.0454707387187743,0.0477017349560608,0.0992335658729579,0.0563560220321101,0.0598798244512924,0.0827375870751901,0.173586167702998,0.1914867764854504,10.277351064790029,10.277351064790029,0.4381312745617662,0.8579858959956785,28.9563179777302,29.06248070396221,11.139021486184047,26.0,19.0,99.0,78.0,3.762365538089989,2.0
512.0078122,9.891965718594848,10.156717398933749,12.701672906659656,13.040863189163003,0.0375255533171021,0.084752108195336,0.0555346312875169,0.058444557409017,0.0611418186463571,0.0361139009214932,0.0730002013163939,0.061610389878686,0.0785254309869616,0.0549971551037924,0.042942533449067,0.0479747146436363,0.0968454447953979,0.0590923868291573,0.0606812303833338,0.0810783833433051,0.1749366232621917,0.1910098903663112,10.312145986939989,10.312145986939989,0.4381423092307671,0.8580474756423515,28.95599823554389,29.06317715306077,11.144252599740042,26.0,19.0,99.0,78.0,3.762365538089989,2.0
513.0078122,9.890692057270796,10.152540395704744,12.665696345670042,13.06575721596672,0.0380986920449728,0.088389002460323,0.0537834488704462,0.058359699200667,0.0624428889459178,0.035227993360271,0.0720941647260979,0.0724807859210913,0.0800318074193846,0.0544471110525022,0.0419772381098602,0.0476942434099532,0.0926368731411792,0.0601811491856931,0.0602980894388814,0.0816062044981283,0.1778082580366616,0.1908268592752705,10.302701363235457,10.302701363235457,0.4381481002662967,0.8581103868365906,28.95568035364145,29.063737041514933,11.144252599740042,26.0,19.0,99.0,78.0,3.762365538089989,2.0
514.0078122,9.88942659663879,10.144774178827316,12.656573742477075,13.092290045250206,0.0394097848252898,0.0946346284549843,0.0535220001149291,0.0599213418628746,0.0639251422971012,0.0327145057174477,0.0698847482306383,0.0829504264802377,0.0804868917197898,0.055292537991308,0.043078027371432,0.0466341690136365,0.0895235105049411,0.0604448432993486,0.0596817879645055,0.0843834914416659,0.180962398959997,0.1913323649096919,10.276310432302742,10.276310432302742,0.4381622763789781,0.8581581413621168,28.955297757320256,29.064343702923196,11.144252599740042,26.0,19.0,99.0,78.0,3.762365538089989,2.0
515.0078122,9.890460264283565,10.139435945153334,12.688838547236308,13.144226508724564,0.0408771589182019,0.0993181164403136,0.0539504565840833,0.062092243636795,0.0649485715648712,0.0299415200448831,0.0674214028211274,0.0854208950470775,0.0794316726908206,0.0569016315365481,0.0453347579677999,0.0451183412338216,0.0899876916124103,0.0603768302832317,0.0597611721306429,0.0884598971021603,0.1827377443316486,0.1926185989505816,10.26615808070187,10.26615808070187,0.4381724471391878,0.8582067959318106,28.954992069523897,29.064979931264496,11.157780309558396,26.0,19.0,99.0,78.0,3.762365538089989,2.0
516.0078122,9.893709623750617,10.13909645835916,12.7555471405912,13.207438570995272,0.0423033112417382,0.0991777760235954,0.0547778049666364,0.0635502704729792,0.0651154965681099,0.0290171639128971,0.0657387773205154,0.0794664041611493,0.0773072836828574,0.0581167010060799,0.0471460159625986,0.0439903819199387,0.0944476370080917,0.0588642172065527,0.0602142480045336,0.0921580201452436,0.182220589682898,0.1942918586055013,10.26958658818619,10.26958658818619,0.4381831149373363,0.8582466660743234,28.954631443814574,29.065654631071403,11.157780309558396,26.0,19.0,99.0,78.0,3.762365538089989,2.0
517.0078122,9.896366695802271,10.142912738141783,12.828419118076347,13.230928743500606,0.0441921633999939,0.0951735271699473,0.0559395493826801,0.0642588241094925,0.0640355968995556,0.030467511032399,0.0648251601673067,0.0705146342728346,0.0759960004004985,0.0582061891315406,0.0476009202879323,0.0440404030189685,0.0999300418450706,0.055633710889886,0.0598953984782083,0.094168298060722,0.1797598168957602,0.1957096122465207,10.26073911327132,10.26073911327132,0.4381823248547061,0.8582856460623489,28.95428616535611,29.066311210461173,11.178533746598452,26.0,19.0,99.0,78.0,3.762365538089989,2.0
518.0078122,9.896759701309664,10.149785874238956,12.872973105688486,13.185230545108649,0.0468470220365547,0.0906174418474633,0.0568401145964001,0.0645876407697071,0.0615624288061703,0.0327001559589152,0.0641889477339002,0.0633350126570815,0.0771979903541442,0.0574787888559434,0.0470635979072642,0.0451946911606376,0.1016363206847001,0.0532215944538511,0.0582612480348595,0.0950223679988898,0.1764830998207441,0.1963710911143722,10.228571941223892,10.228571941223892,0.4381743485258549,0.8583289636687174,28.953934928627397,29.0669293606565,11.178533746598452,26.0,19.0,99.0,78.0,3.762365538089989,2.0
519.0078122,9.895822717618753,10.157292571745131,12.870780466660923,13.090669294329407,0.049381292001519,0.0872590720773024,0.0566865177081928,0.0641360006432273,0.0584134266501289,0.0343460208485862,0.0639903562048914,0.0595688953062181,0.0802553414601149,0.0565910756363106,0.046176518540609,0.0466733711649626,0.0981879572935505,0.0544535883339739,0.0560008151445114,0.0955720783098596,0.1735154099372143,0.1961250331074467,10.189159480069788,10.189159480069788,0.4381673814372272,0.8583754531384558,28.953584488663637,29.067499527977542,11.205122222231449,26.0,19.0,99.0,78.0,3.762365538089989,2.0
520.0078122,9.894278948090976,10.162305213094454,12.849273467269432,12.995513005490322,0.0501583618185058,0.0849430672134406,0.0551964930247121,0.0623489149071422,0.0562290359683025,0.0353541217017423,0.0647486184545545,0.0590538209249631,0.0831731740089033,0.055855696696563,0.0451816234570294,0.0481083190939592,0.0927324094402344,0.0585703464427763,0.0541989526403623,0.0948738786380982,0.1716119796256318,0.1950879402258054,10.16796637750952,10.16796637750952,0.4381666953320398,0.858425649831028,28.95333497524121,29.06804077302449,11.205122222231449,26.0,19.0,99.0,78.0,3.762365538089989,2.0
521.0078122,9.891428966630723,10.164013371898374,12.859585273337586,12.939253479564934,0.0485777129482038,0.083495482271883,0.0526133092289698,0.0593840884304264,0.0565833523378482,0.0359962753790098,0.0663238881535406,0.0622955793049774,0.0853992933564981,0.0553323936898505,0.0441464487932157,0.0494430194030876,0.0881360812377512,0.0616675322956265,0.0531323165429367,0.092129793808384,0.171114733832001,0.1934972635192279,10.17752263863701,10.17752263863701,0.4381713443629392,0.8584724774492548,28.95297345354384,29.068581060661103,11.205122222231449,26.0,19.0,99.0,78.0,3.762365538089989,2.0
522.0078122,9.887628586415529,10.162439674684444,12.898907793210329,12.927479567028444,0.0459766285268206,0.0831769226310782,0.0496714606918427,0.0559362798976764,0.05953621043634,0.0364521029764512,0.0680468251872919,0.0701937775854155,0.0873478939819028,0.0549820095217509,0.0430650447020192,0.0505646355996246,0.0848537419034325,0.0611473418857917,0.0525114906217172,0.0888126344371134,0.1718178409564502,0.1916461273703633,10.21190030203078,10.21190030203078,0.4381670016164577,0.858507792325892,28.95268205278931,29.069232660752345,11.235951261770465,26.0,19.0,99.0,78.0,3.762365538089989,2.0
523.0078122,9.885453160117912,10.156735882843144,12.915827632022024,12.941835340868671,0.0440136614914781,0.0838177706007238,0.0473843423864381,0.0527130450878759,0.0632671625132004,0.0370710527783692,0.0695455659230599,0.0795701060168212,0.0881358371947195,0.0548894472789618,0.0421684829991921,0.0519239491871264,0.0828504068966281,0.0583232208324038,0.0525820284667537,0.0867045741079785,0.1728568470327829,0.189827438315592,10.254755162894924,10.254755162894924,0.4381589376242987,0.8585395033029833,28.95253468554389,29.06983587283664,11.235951261770465,26.0,19.0,99.0,78.0,3.762365538089989,2.0
524.0078122,9.887167872146208,10.14812835289078,12.89585543176731,12.96509725068472,0.0432791315637415,0.0842838654392617,0.0460658027980534,0.0504992597379258,0.0653514208330295,0.0382485196305575,0.0705131667780391,0.0830247837636196,0.0866048105139931,0.0553045601638584,0.0419881497295774,0.0536979077848194,0.0817466037258305,0.0563028507027831,0.0540983149120846,0.0856108760046873,0.173128799161802,0.1882473925768882,10.288256455014343,10.288256455014343,0.4381424019765263,0.8585749136596593,28.952392911249515,29.070426797956586,11.269334901730886,26.0,19.0,99.0,78.0,3.762365538089989,2.0
525.0078122,9.892148927394878,10.14176548305125,12.86692602522529,12.993848024543931,0.0440913794250706,0.0833743627358384,0.0450315606139832,0.050414293207471,0.0647274251123534,0.0401593497682577,0.0703596686738045,0.0770913446477131,0.0835084087757857,0.0561370498520208,0.042516009484127,0.0545972790231042,0.0800580874299404,0.0564133089262858,0.0571966647129262,0.0842559832332039,0.1721526879016504,0.1870347063972546,10.305017910730436,10.305017910730436,0.4381325139943341,0.8585966030738715,28.952235503779605,29.071054780052275,11.269334901730886,26.0,19.0,99.0,78.0,3.762365538089989,2.0
526.0078122,9.897790796144516,10.142961094425804,12.846912869172836,13.03699182188549,0.0466288917101245,0.0813579138579542,0.0437820932265091,0.053275728859084,0.0626736692486678,0.0422943335347755,0.0692210988283054,0.0667457192463316,0.0805051138587462,0.0569568962750433,0.0432080496713767,0.0536120213961205,0.0768758917297728,0.0576336478039761,0.0611163210224473,0.0828094735212443,0.1704586278562733,0.1863455827708516,10.31735673017953,10.31735673017953,0.4381124144941288,0.8586110513957854,28.952047415074336,29.0716756079107,11.30359139599246,26.0,19.0,99.0,79.0,3.762365538089989,2.0
527.0078122,9.902667605781788,10.150386433105847,12.843439652495796,13.097584319992189,0.0495709998241917,0.0796602983513974,0.0428442164392503,0.0587475607189181,0.0613255834598515,0.0432492087848751,0.0683686243746821,0.0588095405878787,0.0781684130267213,0.0575667479016939,0.0440421764911513,0.0516169983263024,0.0736660372336267,0.0588541157191406,0.0650861834302747,0.0834039025721804,0.1689730374077955,0.1863006683782124,10.339568507746762,10.339568507746762,0.4380837612258469,0.8586149488800009,28.9519132758574,29.072288249791363,11.30359139599246,26.0,19.0,99.0,79.0,3.762365538089989,2.0
528.0078122,9.906707517791256,10.155565199129224,12.863785921733443,13.154537171767048,0.0503841417226955,0.079044735721821,0.0429926362693677,0.0648636411600401,0.0613196572045103,0.0421741806404265,0.0689355955679779,0.0549395514784527,0.0762800303740931,0.0579572666815623,0.045209330395277,0.0497972234545267,0.0729209381938449,0.059964309235528,0.0683084891707544,0.0870373219607946,0.1680976902257544,0.1866822429143176,10.360766232126036,10.360766232126036,0.4380467780523484,0.8586110913721556,28.95177204738228,29.07291564206547,11.33711389699901,26.0,19.0,99.0,79.0,3.762365538089989,2.0
529.0078122,9.908723277797211,10.152747716891009,12.886560213148408,13.174507126371644,0.0481566480943817,0.079183869284687,0.0440241868953148,0.0682470818176512,0.0616728592141529,0.0401323741699843,0.0709099886310774,0.0529884873029544,0.0748849175125846,0.0579726643122541,0.0459542593727266,0.0481152324130781,0.0750741296381267,0.0608886610430664,0.0693916457859058,0.0907426649702526,0.1674901230459989,0.1868381814729541,10.35561704420053,10.35561704420053,0.4379972997986034,0.8586000094064535,28.9517009652973,29.07352794883673,11.33711389699901,26.0,19.0,99.0,79.0,3.762365538089989,2.0
530.0078122,9.907018734378502,10.146655858294112,12.871261996510876,13.14997219716882,0.0447803443093321,0.079609797374285,0.0448366288619648,0.0668044118703572,0.0613306902791784,0.0388848742442705,0.0735180370742904,0.0513394642912561,0.0742114369243336,0.0573714702516209,0.0450194190502125,0.0460906653328622,0.0779625773016352,0.0614253406419207,0.0677430821819717,0.0902435641288288,0.166583990882337,0.1861833823644648,10.315174136092295,10.315174136092295,0.4379411587469609,0.85858321890574,28.95161131868397,29.07410334986401,11.368414184884884,26.0,19.0,99.0,79.0,3.762365538089989,2.0
531.0078122,9.902207797581164,10.147161875606804,12.813802862630052,13.110878425104293,0.0424957023468237,0.0803120294994043,0.0446106273757403,0.0620785583745379,0.0601347942284048,0.0390451473870822,0.0756105535642336,0.0499523593228451,0.0744167036223789,0.0560196956255341,0.0420214764686095,0.0440925579529588,0.0793426740750619,0.0617624963872178,0.0648907303832306,0.0856532288405525,0.1651033295257881,0.1848936233204512,10.249202167091148,10.249202167091148,0.4378742973354682,0.8585729125537068,28.951494770532,29.07474718145767,11.368414184884884,26.0,19.0,99.0,79.0,3.762365538089989,2.0
532.0078122,9.897339825002128,10.158820843747153,12.744942971993378,13.088184267099091,0.0418916084360141,0.0815393368601622,0.0435113061477965,0.0569837514866623,0.0588194440916026,0.0399571290372021,0.0756208585874575,0.0489044556489696,0.0756303059001029,0.054113366286739,0.0378869444826615,0.0434161563585382,0.0790499807599209,0.061963756391518,0.0628144900332374,0.0818463189674118,0.1631506247061655,0.1839868875689625,10.17402107233745,10.17402107233745,0.437798490494495,0.8585488686703799,28.951415330159847,29.07525652166675,11.396144643319865,26.0,19.0,99.0,79.0,3.762365538089989,2.0
533.0078122,9.895103240110512,10.176670555187483,12.684478432867715,13.081517462553787,0.0423114078895782,0.0830170034092974,0.042316323033914,0.0524550407567421,0.0582259739246007,0.0406857733616155,0.0731035826374769,0.0477506869553001,0.077441362190354,0.052205407488159,0.0341819552136078,0.0448044139695658,0.0790821400456402,0.0621318142074178,0.0622394903232385,0.0825299451905599,0.1610730624238512,0.1845971998217291,10.107964533312153,10.107964533312153,0.4377218138863699,0.8585293959582736,28.95145513373476,29.075713202204454,11.396144643319865,26.0,19.0,99.0,79.0,3.762365538089989,2.0
534.0078122,9.895394097691756,10.189486781733564,12.628658444929776,13.061815405859765,0.0428753964843052,0.0837870540205832,0.0415745743849985,0.0480629107349962,0.0583290804241291,0.0408042464692324,0.0699016458980422,0.0464910334123195,0.0788430805953628,0.0509987077541968,0.0322981612286092,0.0470181163580132,0.0814869319452709,0.0629748965733337,0.0630833621545722,0.0867294856375031,0.1594285324519569,0.1871305801157045,10.060211702279956,10.060211702279956,0.4376405610367266,0.8585075272188588,28.95148520204371,29.076186029966525,11.41910960771736,26.0,19.0,99.0,80.0,3.762365538089989,2.0
535.0078122,9.89640252011615,10.18912786121268,12.564308509097906,12.9971394318421,0.0430744502165153,0.0834305870875129,0.0414082375226549,0.0444936052625533,0.0584027334698861,0.0405249495709176,0.0684372480760373,0.0458426124811472,0.0791768144654385,0.0509956477121826,0.0329145622051473,0.0480598299514776,0.0859539622002069,0.0646963674510533,0.0649462773197504,0.0917120563848122,0.1589742907161268,0.1910112836475778,10.02963382832103,10.02963382832103,0.4375491030189213,0.8584797070428773,28.951439229837057,29.076751580338357,11.41910960771736,26.0,19.0,99.0,80.0,3.762365538089989,2.0
536.0078122,9.896947614654584,10.179149541368664,12.491832588513654,12.891184342582326,0.0429487878970888,0.0828493703701124,0.0420805465226094,0.0429667466806955,0.0584197540759329,0.0405978709477118,0.0702420536160669,0.0466346968795311,0.0784387952361721,0.0520870088169909,0.0356857707450586,0.0478142233086807,0.0903377476819443,0.0663265137116004,0.0672337807164007,0.0961467010327692,0.1603994023108865,0.1950714879601888,10.020455089196597,10.020455089196597,0.4374593883166377,0.8584421273010429,28.95146616058729,29.077353635325203,11.41910960771736,26.0,19.0,99.0,80.0,3.762365538089989,2.0
537.0078122,9.896279081553503,10.170352723459274,12.439219355007676,12.790384829882456,0.042786929518201,0.0833308994800407,0.0440258791100632,0.0429722605674629,0.0594384023183532,0.0419153944825471,0.0753322665697298,0.0497688622907588,0.077022775392998,0.0537229800903212,0.0395141194728338,0.0476487076367443,0.093335239559954,0.0665729972278451,0.0692037134121779,0.0991290039916218,0.1637899288904866,0.1981716235870839,10.03709360747161,10.03709360747161,0.4373595407353987,0.8583947725574566,28.951496080429024,29.07789887129796,11.436280232031985,26.0,19.0,99.0,80.0,3.762365538089989,2.0
538.0078122,9.8940494510085,10.167521880150934,12.431472466210591,12.733516671630822,0.0426188762253762,0.0850968095843772,0.0469481716877375,0.0431632795483917,0.0618652406428911,0.0446153364525619,0.0811067005897735,0.0555696363844325,0.075767774748338,0.0552782336008097,0.0429293078822622,0.0477780498641791,0.0948130787829412,0.0651177963733659,0.0699002393935934,0.0995246221004474,0.168269168809616,0.1996868802987128,10.066550789682044,10.066550789682044,0.4372427246341326,0.8583423231803017,28.951552490905048,29.078408901106734,11.436280232031985,26.0,19.0,99.0,80.0,3.762365538089989,2.0
539.0078122,9.891496653034842,10.166624733950323,12.45549244051153,12.717666477628804,0.0421547904463319,0.0868760059180557,0.0493469246129775,0.0437229799624862,0.0643420574600568,0.0476362985674261,0.0841394468482028,0.0621040018277994,0.0756344075194763,0.0561083491520228,0.0444618117433644,0.04740951722315,0.0939984887503241,0.0637599837360641,0.0690744472290205,0.097842631229209,0.1723168465515207,0.1996778232456841,10.085790936795762,10.085790936795762,0.4371226619324856,0.858291490795762,28.951605954361906,29.07889249223452,11.446826015981172,26.0,19.0,99.0,80.0,3.762365538089989,2.0
540.0078122,9.890513347542672,10.164262853135147,12.486829905685898,12.72535940180976,0.0415265219817231,0.0871765152389857,0.0497463335718915,0.045735564445394,0.0652249600445582,0.0492557728945178,0.0836622982836598,0.0656750503825516,0.0770305963146079,0.0559582172068099,0.0438091445744744,0.0468944232038525,0.0906288250555958,0.0647043992949849,0.0676339573297716,0.0960868649298609,0.1746923092854423,0.1986561645301867,10.081413800902864,10.081413800902864,0.4369868222941586,0.8582368265568303,28.95170445963984,29.079335796390826,11.446826015981172,26.0,19.0,99.0,80.0,3.762365538089989,2.0
541.0078122,9.891481502000282,10.16129048366221,12.526718252884296,12.74509167549998,0.041536348203314,0.0858807450643838,0.0485913718039807,0.0488459791962969,0.0646291706508474,0.0484011547944488,0.0814777211477639,0.0646074451135461,0.0792503428788983,0.0553656377642695,0.0424055904852976,0.0469873585913335,0.0870438641831786,0.0672173278483136,0.066283244712441,0.0952488024026682,0.1752136865622984,0.197089452234156,10.054968967261203,10.054968967261203,0.4368416434207489,0.858176062284256,28.95188502652643,29.079725293075764,11.446826015981172,26.0,19.0,99.0,80.0,3.762365538089989,2.0
542.0078122,9.893044738572025,10.157881445805636,12.582963523215176,12.757677982131474,0.0424680384250472,0.0841748728164351,0.0477288924693703,0.0510572967892934,0.0643339717063669,0.0457862958016341,0.0798151553260052,0.0614429494835648,0.0804653405906987,0.0550936960047829,0.0419128297610711,0.0469506336646402,0.0852531120887689,0.0683844284743651,0.064819189782118,0.0945594772065055,0.1747088649284536,0.1951055293164884,10.021277768288678,10.021277768288678,0.4366947893683528,0.8581134838934547,28.952010965274948,29.080130455957395,11.450170936169734,26.0,19.0,99.0,80.0,3.762365538089989,2.0
543.0078122,9.893977436560895,10.151912079957004,12.636084004929758,12.74405381802631,0.0434964509316591,0.0832573741378693,0.0479474834009539,0.0511288599393718,0.065413062999501,0.043028675889652,0.0797454549350844,0.0598571810803185,0.0794336477389233,0.0552811595370232,0.0425354236248317,0.0461566295065664,0.0843296824021972,0.06699036899397,0.0629736743101924,0.092766032234315,0.1742772189284253,0.1927072239722544,10.004852900151269,10.004852900151269,0.4365485313232877,0.8580452089173218,28.952058839172437,29.08058267812364,11.450170936169734,26.0,19.0,99.0,80.0,3.762365538089989,2.0
544.0078122,9.894614139490132,10.14192968337156,12.646652240567748,12.715656527823391,0.0438523038615961,0.0833449209969953,0.0486270914552052,0.0503453263615802,0.0668134522646974,0.0409359956915379,0.0805186048252717,0.0607022531522069,0.0772347880085942,0.0555199617531245,0.0432198432200115,0.0457698572228869,0.0835182549154962,0.0644350687886832,0.0611056002715602,0.0892936521853097,0.1746291290771051,0.1901489226909312,10.024320964823758,10.024320964823758,0.4364001672894183,0.8579768164960385,28.95222311947841,29.081109217445636,11.44607365059234,26.0,19.0,99.0,80.0,3.762365538089989,2.0
545.0078122,9.895725403942857,10.130403809112403,12.6026225976382,12.707452358904908,0.043815206585203,0.0837526636443379,0.0492714434522819,0.0508908172406926,0.0669799645652829,0.0395985901902277,0.0810181756331936,0.0629414096094696,0.0760400266391739,0.0555244907440796,0.0430290486816669,0.0467325188271754,0.0839222238214714,0.0622106599910811,0.0599459262746737,0.0851427489168743,0.1759730312089746,0.1879345096661832,10.075917465242028,10.075917465242028,0.436242043381837,0.8579006254717383,28.952442086681067,29.08163020645104,11.44607365059234,26.0,19.0,99.0,80.0,3.762365538089989,2.0
546.0078122,9.896812728376984,10.123630442899916,12.5450860434859,12.739171650311702,0.044295824811044,0.0839243015800628,0.0500000479902011,0.0530120027555631,0.0659049231617466,0.0391741810860748,0.0812794261496629,0.0671221357584467,0.076431710998548,0.05540144795247,0.0420289613661474,0.0481436678808961,0.0857959126010799,0.0603431089790294,0.0595049462675967,0.0826321597907155,0.1781572841071742,0.1863778214146549,10.13532732207946,10.13532732207946,0.436074253907366,0.8578209472229563,28.952673053219275,29.082028043884,11.434721364092711,26.0,19.0,99.0,80.0,3.762365538089989,2.0
547.0078122,9.896319597482194,10.125539318995658,12.522948471017504,12.79935385039656,0.0455883171689317,0.0840386031310517,0.0511114252105213,0.0547334070962403,0.0648693086539207,0.0397041881544046,0.081711501667601,0.0745372278112356,0.0769593968102048,0.0554211501489632,0.0409533633028428,0.0488303142797837,0.0874237563628336,0.0584441800779702,0.0586561596649036,0.0830831638828684,0.1806745620474588,0.1853134901219394,10.174754669486244,10.174754669486244,0.4359065998678042,0.8577398578715164,28.95291638226412,29.08232236455156,11.434721364092711,26.0,19.0,99.0,80.0,3.762365538089989,2.0
548.0078122,9.8933354809086,10.131856137096284,12.542399516268006,12.855473637839465,0.046601787449707,0.084417106919835,0.0527632508209178,0.0544183699141211,0.0644499304908977,0.0405611480326844,0.0818869340881455,0.0827021508444907,0.0762697757223206,0.0558238134413131,0.0404462527668321,0.0490955060705984,0.0869335244789707,0.0565840816867805,0.0566970739263993,0.0856173923346792,0.1826901265515132,0.1842811149195921,10.18115290358946,10.18115290358946,0.4357455105323171,0.8576593618621403,28.953104809087534,29.082685716946443,11.416818076281125,26.0,19.0,99.0,80.0,3.762365538089989,2.0
549.0078122,9.889251787628767,10.13485583367284,12.580563084072551,12.876441912173409,0.0458512909572135,0.0851116103095417,0.0548938934388797,0.0528521107075376,0.0637979751846325,0.0407817644621331,0.0806386795052388,0.0860264674582371,0.0747384441257063,0.0566461067962897,0.0408059157009978,0.0500026218629293,0.0837422777579903,0.0547943889591215,0.0543816968112871,0.0883617186798374,0.1834703119976229,0.182952435328882,10.161416375865793,10.161416375865793,0.4355716243081217,0.8575806071414127,28.95321468368299,29.083018867115605,11.416818076281125,26.0,19.0,99.0,80.0,3.762365538089989,2.0
550.0078122,9.886886916074143,10.132081137845956,12.61460694697516,12.862210670078492,0.0433288413384012,0.0863073813990953,0.0573293161549914,0.0518264903573527,0.0626880572497433,0.0401586038812949,0.0775859906339644,0.0827888287468179,0.073612763046316,0.057532231359168,0.0418566853280011,0.0512021933473758,0.0788059065204405,0.0531327599843787,0.0526297756517759,0.08941993265375,0.1829565350926452,0.1814259015240067,10.131871598163803,10.131871598163803,0.4354011999678017,0.857483221397524,28.95341637549944,29.083369572994982,11.416818076281125,26.0,19.0,99.0,80.0,3.762365538089989,2.0
551.0078122,9.887833009727183,10.12612545555334,12.625764972057535,12.843134181322348,0.0407259357955426,0.0882583555147414,0.0596830051434072,0.0519883517669162,0.0622989923465495,0.0392413097533417,0.074289847347743,0.0771230880075343,0.0734812216809881,0.0581333116807042,0.043107116041582,0.0510888621371564,0.0743523061453514,0.0520375048434801,0.0517937711343161,0.0880008777226817,0.1817728261221396,0.1802382538500432,10.10697081215888,10.10697081215888,0.4352224475227854,0.8573666480530069,28.95360933986786,29.0837069969835,11.39364250178342,25.0,19.0,99.0,80.0,3.762365538089989,2.0
552.0078122,9.89244012758089,10.120484775527508,12.612914749181218,12.840366253920132,0.0396868469336696,0.090497883595952,0.0615281370755883,0.0531365084450878,0.0627099816682841,0.0382364546393112,0.0727454067117486,0.0727823740752855,0.0741940032938376,0.0586251393685463,0.0445245957517992,0.0496349861201894,0.0726951287142646,0.0516807184358779,0.0522018409373625,0.0857566901270338,0.1805792950313104,0.180082551834129,10.089163886783926,10.089163886783926,0.4350285137062891,0.8572627816550935,28.953745820898224,29.08396166948125,11.39364250178342,25.0,19.0,99.0,80.0,3.762365538089989,2.0
553.0078122,9.9008070418209,10.118189741820506,12.601497123823572,12.853346623161157,0.040331738422589,0.091680233047641,0.0628611932740173,0.0549514676640151,0.0619858878258007,0.0370403489936374,0.0732738686827931,0.0695961863226577,0.0753576442425314,0.0591531008816645,0.0462538622835351,0.0483552972732687,0.074691668281735,0.0516463683796288,0.0542607080366446,0.0851029941656383,0.1795261401607194,0.1813360896900389,10.06359738032891,10.06359738032891,0.4348388115168271,0.8571615298565111,28.95393870800386,29.084231144626497,11.367050774313896,25.0,19.0,99.0,80.0,3.762365538089989,2.0
554.0078122,9.910362049477952,10.11977446388632,12.6074810130025,12.878823964985358,0.0415033752698875,0.0907551515544388,0.0637505709611816,0.0568334557748097,0.0591119274015781,0.0360584887871765,0.0748883841548496,0.066650880834164,0.0763660649947328,0.0592467888196172,0.0475284564066576,0.0475346089533844,0.0796009347863425,0.0515761695697145,0.0579294602739993,0.0861429777227045,0.1783336710327634,0.1837334350833936,10.016174932587983,10.016174932587983,0.4346499062990007,0.8570634527971868,28.954022220420185,29.08445605556612,11.367050774313896,25.0,19.0,99.0,80.0,3.762365538089989,2.0
555.0078122,9.91566246246888,10.121332257368412,12.61028337579446,12.894927453454857,0.0420568476993157,0.0882073302753798,0.0640046151633885,0.0580493715144425,0.0558530350120709,0.0360045339020475,0.0765560874542247,0.0646561233591019,0.0768821068815385,0.0586497346332616,0.0475671906364062,0.0464227268735793,0.0857672402215097,0.0515508187640916,0.0619420411492634,0.0872273357313939,0.176678665331474,0.1865131713621363,9.954143972507971,9.954143972507971,0.4344670037949624,0.8569580092237484,28.95419286489316,29.08471995677619,11.339404856663082,25.0,19.0,99.0,80.0,3.762365538089989,2.0
556.0078122,9.914112634346395,10.118586035367931,12.58503368737492,12.8516402585141,0.0418463262604178,0.0854844963740709,0.0633676242361742,0.0581744465713381,0.0541681378056999,0.0369502809541049,0.0771854876281136,0.0638498439191351,0.0773819286961945,0.0579422325893113,0.0469769395617695,0.0450028089983203,0.0905342994359617,0.0519914013742198,0.0644277934114642,0.0875250275493314,0.1744257227792984,0.1889505645202602,9.897451631880685,9.897451631880685,0.4342845074617092,0.8568539738682555,28.95444118582232,29.08496090418164,11.339404856663082,25.0,19.0,99.0,80.0,3.762365538089989,2.0
557.0078122,9.90907541240454,10.113366091566212,12.541711235265195,12.733125089364902,0.0415778054898802,0.0833000820508684,0.0613249199380289,0.057483299677757,0.0534456291096394,0.0380962576349041,0.0759563468501469,0.0624637515951364,0.0784286160450881,0.0575451631919098,0.0466387161355526,0.043799191378572,0.0914747538193097,0.053474827591575,0.0649847942916212,0.0872315713696819,0.1717239974338322,0.1908392391697324,9.862918359454408,9.862918359454408,0.4341079397955391,0.8567540370037275,28.95462255826872,29.085253413866063,11.313418779364005,25.0,19.0,99.0,80.0,3.762365538089989,2.0
