Time (s),Interpolated Values_Waist Acceleration,Interpolated Values_Chest Acceleration,Interpolated Values_Left Ankle Acceleration,Interpolated Values_right Ankle Acceleration,Interpolated_Left Leg,Interpolated_Left Leg.1,Interpolated_Left Leg.2,Interpolated_Left Leg.3,Interpolated_Left Leg.4,Interpolated_Left Leg.5,Interpolated_Left Leg.6,Interpolated_Left Leg.7,Interpolated_Right Leg,Interpolated_Right Leg.1,Interpolated_Right Leg.2,Interpolated_Right Leg.3,Interpolated_Right Leg.4,Interpolated_Right Leg.5,Interpolated_Right Leg.6,Interpolated_Right Leg.7,Interpolated_gaussian_EMG_magnitude_left,Interpolated_gaussian_EMG_magnitude_right,Interpolated Values_left wrist Acceleration,Interpolated Values_right wrist Acceleration,Interpolated Values_left wrist electrodermal,Interpolated Values_right wrist electrodermal,Interpolated Values_left wrist Tempreture,Interpolated Values_right wrist Tempreture,Interpolated Values_VO2,Interpolated Values_Breath Frequency,Interpolated Values_Minute Ventilation,Interpolated Values_SpO2,Interpolated Values_Heart Rate,Interpolated Values_Enregy expendiures,Activity Code
360.0078122,9.921414832565528,9.934124382582718,9.794338607773556,9.954776413908766,0.0246857128204239,0.0486578126391789,0.0228535865792093,0.0088966861158291,0.0185726056170623,0.0188851872668624,0.067674529724583,0.0111989832213117,0.0690667922435026,0.015847039216605,0.0274676452848701,0.016545149730297,0.0139904619485958,0.0226149188387812,0.0463207333871603,0.0198233035507732,0.0985901045085986,0.1079749076048827,9.77958180625741,9.77958180625741,0.0718745244805709,0.1425289021152474,35.32729984761437,36.72006465495564,5.418810492722583,17.0,11.0,100.0,89.0,3.1511415869842034,1
361.0078122,9.926439735915103,9.94653226267597,9.843831555255344,10.019823890208263,0.0262153195819234,0.0401559897269591,0.0230325283183693,0.0103446678154113,0.0189319800318978,0.0280288681665402,0.0685945280748785,0.0191796952717298,0.0700208619853012,0.0225306444441536,0.0312978339010112,0.0195138522958392,0.0164938282266379,0.0324370841339047,0.0426312386600073,0.0363319344032464,0.1038976689237589,0.1213687534598034,9.765080851807252,9.765080851807252,0.0718579157269423,0.1425468531838909,35.32575616695609,36.721978630418846,11.338705408199043,21.0,21.0,99.0,90.0,3.1511415869842034,1
362.0078122,9.935947328947956,9.969768059111225,9.966855199501024,10.150421930505926,0.0299282469135795,0.0398367182810556,0.0247229782233245,0.0135283606497129,0.0202332415748136,0.0416632171363809,0.0703349518052182,0.0319330694480986,0.0739225013587728,0.035039912232408,0.0339505287105851,0.0238935080314002,0.0198466166947148,0.049182649437435,0.0452198396141787,0.0635765601765797,0.1127526433458526,0.1432120874403822,9.771434189142568,9.771434189142568,0.0718429485833963,0.1425697334417869,35.32393153589548,36.723532180525865,11.338705408199043,21.0,21.0,99.0,90.0,3.1511415869842034,1
363.0078122,9.94874027595836,10.002077347935325,10.191016411302655,10.345944826137671,0.0340688536988327,0.0426208020668844,0.0271418166911311,0.0187171177014858,0.0224726234571067,0.0562881822483269,0.0742881871884755,0.0480389779498737,0.0798363449093156,0.0533586271008486,0.035154867191801,0.0294529747773269,0.0231006353526899,0.0671596602795063,0.0536258616681171,0.0984480760897258,0.1245183126996086,0.1706447609230056,9.787449235894098,9.787449235894098,0.0718350888042203,0.1425899123721986,35.32177242255091,36.72507932939395,11.338705408199043,21.0,21.0,99.0,90.0,3.1511415869842034,1
364.0078122,9.961869769667844,10.034687209424852,10.48391994954859,10.560343335830956,0.0362534337098661,0.0419590534964012,0.0293502173889492,0.0250805383660624,0.0248239996356275,0.065784236303983,0.077723004796948,0.0657043620814904,0.0859789799362031,0.0729714286597367,0.0362381204461279,0.0356036055499263,0.0254008165740632,0.0799516893332522,0.0630327588905901,0.1336760742492218,0.1371364099980231,0.1976666317678035,9.79770133548798,9.79770133548798,0.071827724663339,0.1426131084209321,35.3192995760497,36.72651877562487,11.354087097722852,21.0,21.0,99.0,90.0,3.1511415869842034,1
365.0078122,9.972166103210458,10.05678825279155,10.742529478328091,10.72891580407764,0.0359099491158036,0.0379621216698528,0.0307848533286018,0.0310033543374899,0.0262984399670036,0.066503382670558,0.0773140727880627,0.0844863114318164,0.0903096325102358,0.0846645282711428,0.0375212389578236,0.0415040512417568,0.0266691536510375,0.0866148762892389,0.069592743654092,0.1579577719090695,0.1488651183119951,0.217880830727974,9.798909549109217,9.798909549109217,0.0718254138405777,0.1426351107403246,35.31670523189361,36.72789526953094,11.354087097722852,21.0,21.0,99.0,90.0,3.1511415869842034,1
366.0078122,9.97725444227896,10.063646482141325,10.873599389160107,10.824023090083934,0.0345388798807103,0.0340911996939932,0.0313923361142511,0.0353998051399975,0.0268638258583389,0.0605542836417729,0.0731075523429247,0.105117459453883,0.0913987586633515,0.0814164429748184,0.0377406740737792,0.0466732057994166,0.0276283175522237,0.0905556141963719,0.0728239888178338,0.1620650984533061,0.1591397385798443,0.2278848272091956,9.797035867335662,9.797035867335662,0.0718230114306179,0.1426598621854855,35.313627871849455,36.72894962036348,11.354087097722852,21.0,21.0,99.0,90.0,3.1511415869842034,1
367.0078122,9.97765826227889,10.060276888436828,10.879028327576837,10.86397798236322,0.0335888591986677,0.0313475305235198,0.0312925704445038,0.0385260336445246,0.0270412081725074,0.0532632556578575,0.0680880252503904,0.1263532314859125,0.0896585544930861,0.0663419285004464,0.0363788751995701,0.0510278130942533,0.0290101283897447,0.0951213581363488,0.0731182136152385,0.1513494578840153,0.1678926483958811,0.2286760722818072,9.7955283451033,9.7955283451033,0.0718268630550028,0.1426865981164601,35.310376016523946,36.729844052693664,11.384802115833049,21.0,21.0,99.0,90.0,3.1511415869842034,1
368.0078122,9.976174622277036,10.05611159570954,10.829450653600604,10.876009857423677,0.033135772007303,0.0289626759541413,0.0305868007106677,0.0412470241067932,0.0268868032479027,0.0490038273940975,0.0649884836237133,0.1426111259292981,0.0871065541782461,0.0496704664034478,0.0346288762123206,0.0542083183865972,0.0305768257186953,0.1008497464755912,0.0705013851490884,0.1399790766030043,0.1746920890711815,0.2239923250359756,9.791413714093,9.791413714093,0.0718324272239885,0.1427108791304557,35.3067548986117,36.73052250461836,11.384802115833049,21.0,21.0,99.0,90.0,3.1511415869842034,1
369.0078122,9.9746109431771,10.055110622744872,10.785469451322388,10.877811637629229,0.0328794999618567,0.0270123501061881,0.029494569192098,0.043785896082559,0.0261905884489154,0.0502685039806903,0.0647488531233106,0.1477022611241872,0.0854908654008218,0.0381761324864195,0.0337696868751049,0.055924282617631,0.0313152207861985,0.1051834580797743,0.0664730569333189,0.1321410427405112,0.179073781456962,0.2174268389744685,9.782651046089834,9.782651046089834,0.0718375399668243,0.1427307981821684,35.30284239567253,36.7310026497962,11.430504450149382,21.0,21.0,99.0,90.0,3.1511415869842034,1
370.0078122,9.972993689408591,10.05357554341392,10.772461930091549,10.882394244818746,0.0331020773392621,0.0259535615376732,0.028498506958446,0.0457239687340533,0.0252246861388444,0.0572427167906153,0.0667447661180068,0.1415183776213971,0.0851013882797338,0.0314563166590809,0.0337576279447424,0.0567885794119842,0.0307255639565723,0.106158344250015,0.0641403417953575,0.1233363600328532,0.181575561199856,0.2109505269854618,9.773723905588913,9.773723905588913,0.0718485560453812,0.1427523810160521,35.2986856715805,36.731327866960775,11.430504450149382,21.0,21.0,99.0,90.0,3.1511415869842034,1
371.0078122,9.970901788484184,10.049256558427084,10.788120464462782,10.896498313448207,0.0341511737983238,0.025498028985826,0.0282366824927087,0.0468006185103166,0.0246007902447245,0.0662724575696455,0.0694884561990148,0.1325510789100135,0.0853512779835583,0.0270607299342493,0.0337984280116536,0.0577571545773011,0.02923209202701,0.1046933283447454,0.0651353419112018,0.1136281061240806,0.1838401833418883,0.2052634683420557,9.770742943667347,9.770742943667347,0.0718618977989299,0.1427766911914436,35.294221331029455,36.731400495585866,11.430504450149382,21.0,21.0,99.0,90.0,3.1511415869842034,1
372.0078122,9.968650288439283,10.047083494990687,10.807199221629991,10.917014341372946,0.0358094441626462,0.0253821978758187,0.029086988884525,0.0469508798583266,0.0244887079861514,0.0720727210145661,0.0726058964929264,0.1322311249610544,0.0854230229002728,0.0249178295384847,0.0335125810309701,0.0589610119714868,0.0274060855915312,0.1018409740618667,0.0678733267377445,0.1070027938196267,0.1872377591473283,0.2005479163218241,9.774657834695484,9.774657834695484,0.0718773780847444,0.1427982394324257,35.2896170788085,36.73136975216506,11.490117405298133,21.0,21.0,99.0,90.0,3.1511415869842034,1
373.0078122,9.967590641338866,10.053050409136652,10.804379021331613,10.9404513020662,0.0371479602201318,0.0260436524892176,0.0308444443971489,0.0460414538739415,0.0247236493787266,0.0723402759664147,0.0774328238747805,0.1429072508421917,0.0843253657261994,0.0259693203313703,0.0330298381005524,0.0599050970961516,0.0255931237305371,0.0980890456855311,0.0704059450178607,0.1033074947599864,0.1913347970855053,0.1968921189682423,9.782103402680264,9.782103402680264,0.0718925147984202,0.1428259057760048,35.28466958197137,36.7310884670153,11.490117405298133,21.0,21.0,99.0,90.0,3.1511415869842034,1
374.0078122,9.96842324132476,10.066002977090028,10.782915322455446,10.966565910744874,0.0370806490882156,0.0275895341047988,0.0328809751340052,0.0442210102449491,0.0254757248744812,0.0678664269186681,0.0834907725654099,0.1530043506765468,0.0818790209349285,0.0288544446664333,0.032558587503069,0.0607584945877418,0.0242536445251121,0.0955169332226477,0.0731006222815908,0.0986988474673752,0.1940558233801575,0.1944547924767632,9.790181430210415,9.790181430210415,0.0719132203663559,0.14284905122941,35.2795397789166,36.730479311377714,11.490117405298133,21.0,21.0,99.0,90.0,3.1511415869842034,1
375.0078122,9.969912237084651,10.077074528243958,10.76348456262995,10.983338217153424,0.0356723608644984,0.0292362576100576,0.0345328280570295,0.0422178489190746,0.0269067205650335,0.0602589019990557,0.0867902269880672,0.1517938878202045,0.0795432671401804,0.0302198272582174,0.0322520907662845,0.0619928481022791,0.0239261559857009,0.0966219150306874,0.0766763187942454,0.0919698662757626,0.1935803422912992,0.1935470673896676,9.797863834861769,9.797863834861769,0.0719356755519346,0.142874758373743,35.27426962573697,36.72970389840727,11.490117405298133,21.0,21.0,99.0,90.0,3.1511415869842034,1
376.0078122,9.970652537223677,10.078114340526318,10.747376886047412,10.97027715661634,0.0342393910644771,0.0301786021238408,0.0352102308025715,0.0411834313806623,0.0283860522124348,0.0522461798016261,0.0846417047160589,0.1436380891585783,0.0788285428900116,0.0286667092625859,0.0321526427315536,0.0626900300874916,0.0246622897904491,0.1009242618430936,0.0801262774461626,0.0866983525246847,0.1899950025870719,0.1944436351551411,9.8033693283196,9.8033693283196,0.0719613942342626,0.1428993035909151,35.268758347184125,36.72862216165629,11.561335602328102,21.0,21.0,99.0,90.0,3.1511415869842034,1
377.0078122,9.970425568554576,10.069934973406385,10.717605068050714,10.928960184350125,0.0336649007018391,0.0303263499587266,0.0344657192510788,0.0420299192709896,0.0288265822471735,0.0470064053869006,0.0795420420800056,0.1378236720862259,0.079505096128824,0.026693847656169,0.0321464016505733,0.0614403532041015,0.0260018024459148,0.1050962485366927,0.0820126266884385,0.0882793183188206,0.185005155938435,0.1970444924718231,9.803864746298624,9.803864746298624,0.0719851171564181,0.1429232434083758,35.26306546265012,36.7274999261926,11.561335602328102,21.0,21.0,99.0,90.0,3.1511415869842034,1
378.0078122,9.96923244182524,10.059678077562031,10.675356608967164,10.887698690225214,0.0336539138503769,0.0301135444346804,0.0324869696527318,0.0443029672618944,0.0279818218348368,0.045839342837673,0.0758521288455158,0.1346492888708001,0.0803537456641738,0.0273780794665204,0.0322044962693016,0.0587313148623862,0.0273730485085139,0.1065059599492344,0.0822213668424128,0.0984498684631655,0.1803784973930546,0.2007083674733034,9.799682473497958,9.799682473497958,0.0720087646226372,0.14294885677752,35.257325067714504,36.72628104584764,11.561335602328102,21.0,21.0,99.0,90.0,3.1511415869842034,1
379.0078122,9.96726377780689,10.052635300725075,10.646899169797369,10.869100321917877,0.0337029463057351,0.0296043853306147,0.0302119657497364,0.0464449272271114,0.0268497102367068,0.0484362821635207,0.0748922986515662,0.1303727390132301,0.0809095909487072,0.0306404558246981,0.0326831284501085,0.0567606047964016,0.0281165664065069,0.1055506461237159,0.0819753124187618,0.1105079265785046,0.1769290286685254,0.2044688221484225,9.793788584550027,9.793788584550027,0.0720345436863906,0.1429804873162904,35.251328183782874,36.72466568702793,11.640210256111056,21.0,21.0,99.0,90.0,3.1511415869842034,1
380.0078122,9.965507943033504,10.04936411262773,10.64972923762958,10.868188725611482,0.0338306277604311,0.0281909479701457,0.0284469086740692,0.0477987702234162,0.02638735078968,0.0542338285438898,0.075456174003926,0.1252741856779447,0.0818885393545202,0.0338727557920727,0.0340599224387712,0.0573197553099135,0.0276722199360484,0.1044132810751041,0.0820602355548543,0.1150063729684336,0.174554973134251,0.2075970718122087,9.786291886204628,9.786291886204628,0.0720602971051748,0.1430051312860426,35.24521545643257,36.72286905977451,11.640210256111056,21.0,21.0,99.0,90.0,3.1511415869842034,1
381.0078122,9.9646135091022,10.048323917405597,10.67244460318862,10.867081132127945,0.0343080564659866,0.0256144017086243,0.0272447986063413,0.0494740036304698,0.0264635088915591,0.0614341337429115,0.0767118358181893,0.1209465735992897,0.0840340153571877,0.0352652760183849,0.0362476220900801,0.0602040428810086,0.0262225833280576,0.1040443274142195,0.0811642217334286,0.1126698422142152,0.1726158944660823,0.2101101581625468,9.775474759785109,9.775474759785109,0.0720867704252744,0.1430314245531336,35.23902791894098,36.72096798175205,11.640210256111056,21.0,21.0,99.0,90.0,3.1511415869842034,1
382.0078122,9.964314521698448,10.048417386332442,10.695603944949283,10.86227200126777,0.0351662997450151,0.022699115386195,0.0263044639130467,0.0527104330142387,0.0263591579486595,0.066125493204032,0.0783345395707317,0.1159281150862859,0.086496813220255,0.0352594629233382,0.0382353003706422,0.0630859724157093,0.0247212216232409,0.1041817605963413,0.0778487924722754,0.1127279170391513,0.1703361767691317,0.2126908373753988,9.76329382803138,9.76329382803138,0.072113162978368,0.1430618157061964,35.23272308976513,36.71888956101357,11.640210256111056,21.0,21.0,99.0,90.0,3.1511415869842034,1
383.0078122,9.964387330585042,10.048707860160054,10.714630679376146,10.863197183378556,0.0361169812012071,0.0205884453345135,0.0254649880386843,0.0565642115304042,0.0256797265367399,0.0653178146286352,0.0799448226024424,0.1078447759384041,0.0871773609948776,0.0353980215057427,0.0386703268182586,0.0632945772255079,0.02410899534682,0.1054086276953435,0.0737968755217615,0.1195470733138621,0.1674797343193834,0.2159935209296838,9.755819704761509,9.755819704761509,0.0721394189938152,0.1430891949341416,35.22629805922474,36.71651400779072,11.720963097066882,21.0,21.0,99.0,89.0,3.1511415869842034,1
384.0078122,9.9647068554306,10.047921787826564,10.73543230026543,10.867069959467829,0.0367260864338719,0.0197056330552902,0.024822363092203,0.0583948485539154,0.0245990490645682,0.0603513981768534,0.081555569627347,0.0980527220228602,0.0854039967350297,0.0372578952340195,0.037309537607508,0.0605620785550384,0.024662922840672,0.1085313704035187,0.0726900770794525,0.1297993622261377,0.1650437949795798,0.2199192085674133,9.75828470707603,9.75828470707603,0.0721645865587633,0.1431153844345504,35.21974964688806,36.71411329988137,11.720963097066882,21.0,21.0,99.0,89.0,3.1511415869842034,1
385.0078122,9.965016263830105,10.04592113417366,10.763441074152148,10.860058959214678,0.0366601104843295,0.0197118225346209,0.0247371632612329,0.0571368215034507,0.0236819620362722,0.0552758969010682,0.0831678324402132,0.0925492549122876,0.0828315401195206,0.0408397535221171,0.0354386125330889,0.0575892005927142,0.0260340486085707,0.1131245073247635,0.0761477908632074,0.1375128285844626,0.165113677739749,0.2234885799366349,9.769507650921964,9.769507650921964,0.0721892202424737,0.143139517469136,35.21308313067136,36.71138308715602,11.796136176777344,21.0,21.0,99.0,89.0,3.1511415869842034,1
386.0078122,9.964961004731414,10.044407980347202,10.796325128254944,10.8495055201894,0.0361383697951655,0.0200231557410834,0.0255412682744283,0.0544541462798027,0.0237261779043312,0.0540174336994423,0.0843933018475906,0.0985203412172831,0.0814295749485,0.0431929881535661,0.0342604077717143,0.0574282827235747,0.0278586929545111,0.1178008564114696,0.0822357038059412,0.1363230820868997,0.1695284669726923,0.2253937319827787,9.78243082667345,9.78243082667345,0.0722080576048516,0.1431591803488771,35.20628423686274,36.70851570525888,11.796136176777344,21.0,21.0,99.0,89.0,3.1511415869842034,1
387.0078122,9.963942588721808,10.0452107740376,10.816471957670949,10.862304581471044,0.0357872058704899,0.0201936437398897,0.0269052786180039,0.0523673057592499,0.0251929933894037,0.058931271778265,0.085494110950848,0.1175179634705314,0.0819083955598044,0.0417823293487964,0.033580990099108,0.0605406174592361,0.0301693264478437,0.1210987339303391,0.0883576912970121,0.124293669867674,0.1781365074257051,0.2248672147289794,9.790703611505691,9.790703611505691,0.0722280472927321,0.1431814406270761,35.19953887225452,36.70540835789629,11.796136176777344,21.0,21.0,99.0,89.0,3.1511415869842034,1
388.0078122,9.962074870808475,10.049084949203326,10.801412436295134,10.89942447665827,0.0355189966258006,0.0200876669620111,0.0279269074888285,0.0513121272007052,0.027553246048187,0.0675682932656529,0.0877229887683289,0.1395694023503679,0.0833733629207735,0.0385881966361895,0.0326548782730209,0.0644742754046367,0.0325785833063783,0.1210883048114295,0.0937936999745349,0.1088395145684344,0.188347750873746,0.2220939642414169,9.792459541283115,9.792459541283115,0.0722485680420151,0.1432057556958705,35.19280573804894,36.70201056641234,11.857116878137472,22.0,21.0,99.0,89.0,3.1511415869842034,1
389.0078122,9.960565177475733,10.055296243597391,10.751813646919176,10.9311036242628,0.0345152411683224,0.0199654785078441,0.0283024362910731,0.0512547608086222,0.0300643060362779,0.0727508729594854,0.0912447996894334,0.1505672208334765,0.083883617241005,0.0374587583723939,0.0315556733881622,0.0665414992373952,0.0336002328130572,0.1146610084993235,0.0975121213690838,0.1004393214408557,0.1967738631107207,0.2179879409175472,9.790975763669536,9.790975763669536,0.0723271798590772,0.1432295433726909,35.18594770623227,36.69846401188682,11.857116878137472,22.0,21.0,99.0,89.0,3.1511415869842034,1
390.0078122,9.960148329422388,10.061129015685664,10.697878889102435,10.9421816457151,0.0326828100645999,0.0203424542621435,0.0288246265367142,0.0530696975035825,0.0328021237579746,0.0705288059891758,0.093175364484672,0.1500551765859785,0.0828241732871013,0.03860097637505,0.0309161918214381,0.0671505026857423,0.0322842276278138,0.1013865517232696,0.0976183649890628,0.1015384358978104,0.2014955168231132,0.2137647438249302,9.793378560821122,9.793378560821122,0.0723620963081107,0.1432504070942827,35.17897936721092,36.69474627964149,11.857116878137472,22.0,21.0,99.0,89.0,3.1511415869842034,1
391.0078122,9.96026067862751,10.06371989608798,10.66816941728964,10.948353223919232,0.0309936820867569,0.0213382163278704,0.0301357324744064,0.0565741225223537,0.0355340302972462,0.0646747050691382,0.0909952363662967,0.1494524174505734,0.0820065589493526,0.0386250192249864,0.0309326199375525,0.0692037450565373,0.0296952872516591,0.0874353611018957,0.0956229687796196,0.1061345421989699,0.2026103945533572,0.2105571578133574,9.802177770943167,9.802177770943167,0.0723873015953246,0.1432721716601381,35.172052711855926,36.6908735010672,11.894994020219782,22.0,21.0,98.0,89.0,3.1511415869842034,1
392.0078122,9.959895261626714,10.062005496432583,10.65874622959983,10.971767348053245,0.0301856299876777,0.0223296178946156,0.0315995571159659,0.0586672628561534,0.0369430077906389,0.0607175810232901,0.0880141401424221,0.1516469299283183,0.0828709304211456,0.0360329812745299,0.0314323942212538,0.0732785401934424,0.0275255567740556,0.0798030706198135,0.0958644732019901,0.1083266817596446,0.2009302977434311,0.2089788001385245,9.809793658358638,9.809793658358638,0.0724096191888696,0.1432881365217662,35.1651552524573,36.68679777637416,11.894994020219782,22.0,21.0,98.0,89.0,3.1511415869842034,1
393.0078122,9.958891183079864,10.056170065282258,10.647204208668546,11.013686344513356,0.029979537656017,0.0225704510294235,0.0319402879167828,0.0567823856756777,0.0362761491766344,0.0595160546129899,0.0901356160984028,0.1479111225211502,0.0845067378829208,0.0332401802267958,0.0322687317044598,0.0762024503144793,0.0264542934958341,0.0797778978631499,0.0996757906931078,0.1064564367685507,0.1969862325010679,0.208859760829865,9.807405895271293,9.807405895271293,0.0724259318603729,0.1433052208271207,35.15822190902989,36.68259546709777,11.90162223584667,22.0,21.0,98.0,89.0,3.1511415869842034,1
394.0078122,9.958155296971356,10.04762115627739,10.626300801386105,11.043525710341669,0.0299800797569695,0.0218701640083134,0.030710035461007,0.0524733338306204,0.0340766731859012,0.0585541170466299,0.0976129931859856,0.1333403412166566,0.0852037940573471,0.032057061663076,0.0331191268343868,0.0758716574781371,0.0262652672879254,0.085497223337433,0.1036171850488367,0.1012503811752278,0.1914955370104133,0.2095164524457069,9.79478452625168,9.79478452625168,0.072440567323832,0.1433176528810306,35.15121110908929,36.67819123278565,11.90162223584667,22.0,21.0,98.0,89.0,3.1511415869842034,1
395.0078122,9.958338886388864,10.039195413368214,10.600219883074017,11.02424259446314,0.0305160031972012,0.0206939198528075,0.028850822119925,0.0490662962139766,0.0312366597333866,0.0572147495823231,0.1049027468622975,0.1150615589506786,0.0843394511492738,0.0314432174379802,0.0335015063899053,0.0747658173410509,0.0264272645533557,0.094855896823375,0.103212280210152,0.0954565453045381,0.1860197309247941,0.2102918236424608,9.779160187797734,9.779160187797734,0.0724522272536982,0.1433382138726845,35.144547095020094,36.673674555454014,11.90162223584667,22.0,21.0,98.0,89.0,3.1511415869842034,1
396.0078122,9.958991869143238,10.033966733946034,10.570670080240356,10.956767324583128,0.0317733833334852,0.0197946353926266,0.027720177992507,0.0478815528207876,0.0286086916462344,0.0577929205151285,0.1075816197047286,0.1049122723208196,0.0826972540718918,0.0303501678883713,0.033316317219984,0.0763612071959415,0.0265963282490326,0.1042494390653401,0.0979116210695648,0.0933472713390915,0.1824647672838583,0.2107513913867048,9.769341659468372,9.769341659468372,0.0724619200288373,0.1433520234851639,35.13781314970794,36.669026466498615,11.870718170769807,22.0,21.0,98.0,88.0,3.1511415869842034,1
397.0078122,9.959348879326608,10.033977800921964,10.546280125862438,10.879572256834672,0.0330060165852121,0.0196722183553515,0.0278794006954445,0.0477279395803686,0.0269168684592997,0.0611453365404161,0.1060332058456459,0.1068692354404804,0.0814569492651035,0.0289682827586292,0.0330661637347591,0.0792846121752928,0.0269123684143225,0.1090355245927487,0.0916403716473219,0.0963145180448945,0.1820063877459297,0.2105362659155882,9.771698858715498,9.771698858715498,0.0724714874869751,0.1433675442824494,35.13102785895628,36.664285768558166,11.870718170769807,22.0,21.0,98.0,88.0,3.1511415869842034,1
398.0078122,9.959434179558713,10.039122171366808,10.53767042135761,10.824861114036214,0.0333312947632335,0.0204683588675548,0.029055588774632,0.0466617156372743,0.0264778238788479,0.0645376773639363,0.1032034122186402,0.1143769776031231,0.0811301734178726,0.0277279684615101,0.0333946171225658,0.0792777796497463,0.0275494063640993,0.1063517890725223,0.0879879650420602,0.1009476665511414,0.1847923236485596,0.20944881877658,9.78655678669494,9.78655678669494,0.0724812241507802,0.1433776254297789,35.124247255212794,36.65943730765819,11.870718170769807,22.0,21.0,98.0,88.0,3.1511415869842034,1
399.0078122,9.959600500167772,10.046628340145489,10.539708044150526,10.797504436818985,0.0325711545728791,0.0223207457135718,0.0308582029519666,0.0438093838143795,0.0273081103472451,0.0653193436702771,0.101357576160566,0.1226026827576766,0.0813959318968174,0.0273705135751604,0.034421318999536,0.0762794070694107,0.0281815153718726,0.0973636642013398,0.0873768675904066,0.1034131916145901,0.190410223108601,0.2078751794020505,9.805703714267464,9.805703714267464,0.0724853778010478,0.1433870285538698,35.11750082023642,36.654436906625705,11.798797376705862,22.0,21.0,98.0,88.0,3.1511415869842034,1
400.0078122,9.959347049811356,10.05229345692088,10.53874651767679,10.78878987765961,0.0311908285418386,0.0251464867853192,0.0329773253312199,0.0399007482815195,0.0292283280488002,0.0648811383814028,0.1011260407515458,0.1361119849477498,0.0813777017014869,0.0287297965607622,0.0355544312485887,0.073964381341515,0.0281784862625012,0.0877577269897916,0.0892401011745884,0.1033872241095942,0.1979228666398859,0.2068423571215554,9.817515165373182,9.817515165373182,0.0724903074080547,0.1433963089426324,35.110957989105344,36.6493554347837,11.798797376705862,22.0,21.0,98.0,88.0,3.1511415869842034,1
401.0078122,9.958473164265907,10.053291890897125,10.530424165491889,10.790164255228415,0.0299131574128886,0.027682646381372,0.0345240744054777,0.0366631331811156,0.0314688335829577,0.0667544614569011,0.102188178157991,0.1549408294866215,0.08041144123404,0.0318249621761544,0.0362247830837351,0.0735325046788883,0.0273213707938588,0.0846320568053947,0.0938853144710653,0.1026564650516926,0.2052981826747992,0.2072559824443161,9.816820141992626,9.816820141992626,0.0724974566497361,0.1434010235209178,35.10462028845828,36.64411678483265,11.685787816097507,22.0,21.0,98.0,88.0,3.1511415869842034,1
402.0078122,9.958035377071868,10.050258203677204,10.521343574527975,10.79555566625782,0.0293150186772944,0.0281014257216829,0.0343071398161521,0.0358118114731721,0.0326174243730527,0.0714902121092664,0.1041452519458431,0.1658465047826092,0.0790187238525627,0.0359145429636657,0.0366145325194895,0.0728598092353527,0.0262046597666556,0.0899912852335992,0.1004918921530611,0.1024277960860138,0.2096652062081541,0.2089487445791698,9.807213352009382,9.807213352009382,0.0724940124674956,0.1433984514131224,35.09820296838655,36.63888322889438,11.685787816097507,22.0,21.0,98.0,88.0,3.1511415869842034,1
403.0078122,9.958572488629342,10.046173490057985,10.518756161580797,10.802342033774284,0.0294714270145043,0.0263489778494558,0.0323555879186276,0.037757795117007,0.0317334410329415,0.0752106830089687,0.1069911356161384,0.1587861931096652,0.0786494235656343,0.0393982256336664,0.0370155080920582,0.0702258586914218,0.0255003960409221,0.0978982395260606,0.105582077438788,0.1026824816793751,0.2090556654532459,0.2106240030889702,9.794399599901844,9.794399599901844,0.0724934096414701,0.1433975104086777,35.09196567181089,36.633433188449466,11.685787816097507,22.0,21.0,98.0,88.0,3.1511415869842034,1
404.0078122,9.95955505756408,10.043489362757697,10.52164087330707,10.812211541867246,0.0301004949210388,0.0242446515617559,0.0300534237948184,0.0411229643100296,0.0293882906320425,0.0739589092918568,0.1104722907438211,0.1400094361332587,0.0800087793306852,0.039738280004959,0.0369590634973398,0.0660792343246607,0.0250740143735757,0.1010549376642386,0.1059769628848139,0.1024682202712215,0.2039086165363599,0.2109357985107492,9.782123733369785,9.782123733369785,0.0724907203647017,0.1433933494332445,35.08576492544528,36.62790868460689,11.53521583708656,22.0,21.0,98.0,87.0,3.1511415869842034,1
405.0078122,9.960492086508866,10.04258432257261,10.524979227322053,10.823490571122742,0.0309560691507874,0.0230211981878578,0.0286331133990443,0.0439968880533366,0.0270163063228332,0.0687639958117148,0.1133032830748354,0.1229804231402524,0.082036477599727,0.0358967736272945,0.0359604310842966,0.0623970878974958,0.0245194749921867,0.0993005335607316,0.1020694568171467,0.1008070783770114,0.1965161757105747,0.2096955911387139,9.773160294381888,9.773160294381888,0.0724918435239397,0.1433883726887735,35.07963611412416,36.62234840304391,11.53521583708656,22.0,21.0,98.0,87.0,3.1511415869842034,1
406.0078122,9.96135455748592,10.041779773955124,10.526909451712704,10.822552311947902,0.0317772135768038,0.0222478686932774,0.028086681030752,0.0454111317400093,0.0254437158369251,0.0642906167656986,0.1141160619527581,0.1132122661306092,0.0831358245281624,0.0302601234563491,0.0343606245813755,0.0611638586048712,0.0240988377125283,0.0990418404935454,0.0974641103365103,0.0973080118630431,0.1891113576489236,0.2079853606752054,9.767909569533156,9.767909569533156,0.0724870101538523,0.1433867924864281,35.07355231355092,36.616622901195065,11.53521583708656,22.0,21.0,98.0,87.0,3.1511415869842034,1
407.0078122,9.962276778809496,10.03916472244252,10.52563861683922,10.797017712035812,0.0323306053332223,0.0212389544016967,0.0275597170597962,0.0456594448157042,0.0246813745286188,0.063107733033494,0.1127058001334594,0.1069000621534468,0.0829513777600554,0.0261052924457392,0.0327094330505858,0.0628264056903199,0.0244085603094229,0.1036515077617766,0.0957812840623154,0.0926232800699624,0.1826868770171472,0.2071451219153142,9.76448705506125,9.76448705506125,0.07247808210539,0.1433767137046387,35.06760072509843,36.61088721398778,11.353936680341006,22.0,21.0,98.0,87.0,3.1511415869842034,1
408.0078122,9.963061635761951,10.035384733965612,10.521775548699283,10.757355789930983,0.0326828785195495,0.0202580258711126,0.0266364405872776,0.0456668421566474,0.0246232581525864,0.0636746959068139,0.1095926039769104,0.1012426360133436,0.0820452339703318,0.0245266249377015,0.0313078800174609,0.0669499507575687,0.025287303426927,0.1084009887367539,0.0975619741479997,0.088835196324301,0.1772993923225533,0.2077871517056356,9.762981950587106,9.762981950587106,0.0724725169277896,0.1433633041792165,35.061775248886,36.605147074315,11.353936680341006,22.0,21.0,98.0,87.0,3.1511415869842034,1
409.0078122,9.963463235089383,10.03303978836744,10.524330918096211,10.728631126324288,0.0328284065752268,0.0198399758679943,0.0258029730279203,0.0457428444304404,0.0249646621474586,0.0633603023843289,0.1050626580586071,0.0977259641748297,0.0805878383091882,0.024569429843481,0.0304712824378551,0.0737602323121016,0.0257290560324971,0.1078049122462107,0.1013302295750457,0.0874923674889785,0.1729575490322966,0.2096911505243305,9.764542618162682,9.764542618162682,0.0724678213762462,0.1433467236314246,35.05594200507969,36.59921124891152,11.151455850019678,22.0,20.0,98.0,87.0,3.1511415869842034,1
410.0078122,9.963364052791691,10.033785540463104,10.541895245527474,10.72638514809728,0.032410499108696,0.0198962264889942,0.0256641238701822,0.045282847068787,0.0251062421055823,0.0617196550151985,0.0992298381265389,0.0974314686230585,0.0786058794140571,0.0250663658158473,0.0303297564468371,0.0830443279685082,0.0251292049154386,0.1029670191509232,0.1063644588188914,0.0878446521339934,0.1701070400658357,0.2122289281092068,9.766700251148558,9.766700251148558,0.0724578169212106,0.1433347500204657,35.05010867366191,36.5932440495405,11.151455850019678,22.0,20.0,98.0,87.0,3.1511415869842034,1
411.0078122,9.962533071043548,10.03748704648599,10.571177422381613,10.749652471542856,0.0315424843284521,0.0200382329438826,0.0261810581104382,0.0440097425680655,0.0249578433467836,0.0609226154233605,0.093135058318624,0.1005852700752987,0.0769055161694685,0.0257132133596204,0.03053063681334,0.0917811206731905,0.023951608296975,0.0988152141908745,0.1119660828279818,0.0884289884670659,0.1694234502425406,0.2146145320420052,9.765721449590831,9.765721449590831,0.0724473660811134,0.1433169630268021,35.04442590666588,36.58739693205396,11.151455850019678,22.0,20.0,98.0,87.0,3.1511415869842034,1
412.0078122,9.961226677080926,10.042438262703518,10.59910218699857,10.787110513949123,0.0310673706262103,0.0201758246316297,0.0268523999111866,0.0424900750237864,0.0250119984561091,0.063585860014944,0.0892495084733298,0.1074951156561728,0.0767192853986866,0.0263920883382065,0.0307406230988443,0.0949331500759097,0.0229891315678552,0.0976939880084627,0.115964538152554,0.0890706773151106,0.1711306457009049,0.2160135468166424,9.76259610496658,9.76259610496658,0.0724345068309349,0.1432958845112767,35.03871269346018,36.58143831777734,10.938946062767306,22.0,20.0,98.0,86.0,3.1511415869842034,1
413.0078122,9.96032540639244,10.045905099787015,10.610691637210708,10.822538029619006,0.0313328989556848,0.0203489692539255,0.0272912759806075,0.041567055271646,0.0254310256907103,0.0693974335460407,0.0897146174614433,0.1150541908516359,0.078615558411386,0.0265991854139233,0.0312150022237802,0.0898986958202715,0.0226074017870833,0.0985297729930294,0.1162200896271419,0.0902979720710504,0.1744945500622687,0.215855715092983,9.761481962883424,9.761481962883424,0.0724189060382513,0.1432731989209356,35.033173611494114,36.57543990744424,10.938946062767306,22.0,20.0,98.0,86.0,3.1511415869842034,1
414.0078122,9.960260750537795,10.046107962426625,10.598470999712932,10.83439917001832,0.031767636153154,0.0203410904389861,0.0273171117438033,0.0418631951533566,0.0259667085065994,0.0741610267878503,0.09428230243289,0.1173238604740045,0.0818047680685768,0.0261381369255996,0.03230357290889,0.0794304763433172,0.0226815423906771,0.1002163908538532,0.1123039646893476,0.091895890466537,0.1781578910779074,0.2142810049996645,9.762875847062515,9.762875847062515,0.0724070976359812,0.1432455932016675,35.02763540251122,36.569409907345545,10.938946062767306,22.0,20.0,98.0,86.0,3.1511415869842034,1
415.0078122,9.96053623038189,10.043680106306653,10.575113349890842,10.805442409728167,0.031968264039584,0.0200350538089253,0.0270051877278487,0.0431318355798481,0.0265570154188333,0.0742816853891861,0.1008892266054431,0.1135299210604767,0.0842683022267577,0.0254510099412304,0.0336392831941664,0.0691572902879097,0.0228840359214491,0.1019582845514178,0.1052995190324392,0.0940243811338947,0.181082660338815,0.2122223444989484,9.76249108198786,9.76249108198786,0.0724032571330992,0.1432173149229166,35.022053246903084,36.56341780757953,10.728100194655562,22.0,20.0,98.0,86.0,3.1511415869842034,1
416.0078122,9.960506771658904,10.040435306486389,10.568748721700487,10.74576154921216,0.0322169934543191,0.0198708397791245,0.0269645238430509,0.0441308269138988,0.0272083838097627,0.0711372212451625,0.1064898966012863,0.1107010644383044,0.0842999606350891,0.0252968348215856,0.0345243444894985,0.0637499925741092,0.0229800903989354,0.1015808101096281,0.0973379644547558,0.0989405483042119,0.1829833056354424,0.2110037066566926,9.757845516074312,9.757845516074312,0.0723894801968246,0.1431869400804003,35.01664496143063,36.55720948307769,10.728100194655562,22.0,20.0,98.0,86.0,3.1511415869842034,1
417.0078122,9.9604699734261,10.03756428165972,10.59571125989835,10.69225228204327,0.0328885555389316,0.0201882383287902,0.027673448818322,0.044547096629035,0.0275883181610527,0.0686184221328182,0.1072907608564366,0.1144437903669453,0.0825744773638188,0.0265359019611436,0.0348226917127913,0.064828186437841,0.0229974978235974,0.0981911927597928,0.0905697731834613,0.1084300400392113,0.1838455159899243,0.2116718311734713,9.752050346622468,9.752050346622468,0.0723797499320639,0.1431552706907643,35.011306110911576,36.550928954356685,10.728100194655562,22.0,20.0,98.0,86.0,3.1511415869842034,1
418.0078122,9.961235798756787,10.035682769839111,10.648523842104009,10.676699892230536,0.0338384141167303,0.020438913508306,0.0284068494897887,0.0464615344334682,0.0273490334017145,0.0683271463062774,0.1024383924759706,0.1200718936767943,0.0813319435612849,0.0299417194232726,0.0348518918957871,0.06970981891743,0.0231135112629468,0.0952223903412532,0.0857723783599174,0.1203163075191819,0.1834624646906607,0.2144031059231327,9.749003284693554,9.749003284693554,0.0723742940289328,0.1431238960127051,35.00592937349672,36.54475172779287,10.529973376531688,22.0,20.0,98.0,86.0,3.1511415869842034,1
419.0078122,9.962644539100417,10.03532251435544,10.704128810697654,10.698108013238889,0.0344754694920497,0.0198865865206463,0.0280242528101785,0.0509489783815726,0.0266170623434096,0.0691938691930781,0.0967098383857729,0.1183659300461787,0.0812530717892089,0.0354532114292988,0.0347313473985171,0.0729500734678475,0.0232567051030434,0.0967464965934823,0.0828512151322583,0.1298840172334306,0.1818224593776468,0.2183893763294579,9.749237390821502,9.749237390821502,0.0723616978798874,0.1430840816730242,35.00062427712376,36.53847006009135,10.529973376531688,22.0,20.0,98.0,86.0,3.1511415869842034,1
420.0078122,9.96391614980181,10.036103241114096,10.731814955223232,10.73005142856652,0.0344163637209839,0.018750554219277,0.026668407845967,0.0549594977973605,0.0257495726786034,0.0699467144340392,0.0952792885332761,0.10839645637716,0.0811883895807457,0.0407953182422383,0.0342131306121732,0.0722400101010024,0.0230395537900505,0.1028826527319487,0.0829856333727437,0.1334807970484362,0.179841436828552,0.2223783570301984,9.75158398298507,9.75158398298507,0.0723533394170705,0.1430484364236704,34.995212057280334,36.532130579651096,10.353960225708937,22.0,20.0,98.0,85.0,3.1511415869842034,1
421.0078122,9.964701103717427,10.036577666114209,10.712729269115457,10.754817799259833,0.0338501845193102,0.0178493357099395,0.0254062781065735,0.0552192166434725,0.0248223078444498,0.0702125934843959,0.0988898318217847,0.0981976492893472,0.0806230567518661,0.0423324805518419,0.0330645496749939,0.0708755868728298,0.0223727325625774,0.1110213301277869,0.0881203986933137,0.1293436976397468,0.179341756235847,0.225471950890623,9.754709754381052,9.754709754381052,0.0723387835365903,0.1430140899483675,34.989840784472456,36.52574981792211,10.353960225708937,22.0,20.0,98.0,85.0,3.1511415869842034,1
422.0078122,9.964798280080288,10.036170398250183,10.660255540829082,10.77180373224993,0.0333263888126011,0.0175160320359871,0.0247881211121353,0.0521992606778669,0.0238870131754329,0.0703868180749541,0.1050271878205048,0.096558215918683,0.0804621378110133,0.0392310056283082,0.0314749994963772,0.0719181970623904,0.0218007302807541,0.1187780879100163,0.0971332554722421,0.1179095713659963,0.1819718852949354,0.2275443274439686,9.757824032331223,9.757824032331223,0.0723281690875968,0.1429756621214334,34.98451201612787,36.519431100937695,10.353960225708937,22.0,20.0,98.0,85.0,3.1511415869842034,1
423.0078122,9.963880025286654,10.036076294361084,10.605526890059316,10.777376823429032,0.0333945297619965,0.0175449610699641,0.0247904178251538,0.0480549782996232,0.0235773202299613,0.072225414401887,0.1092040554764501,0.1086117525371652,0.0816930250881255,0.0351722444506023,0.0299551649720797,0.0742898067927984,0.0219824959636611,0.1249995841837646,0.1048664452453054,0.1038710151321758,0.1877676285571231,0.2290291667103868,9.762656536678609,9.762656536678609,0.0723235057578185,0.1429393917189345,34.97923125388383,36.51300850181309,10.207029398231914,22.0,19.0,98.0,85.0,3.1511415869842034,1
424.0078122,9.96204456515085,10.038219366924071,10.56889705012252,10.766232676529366,0.0340726500043802,0.0177184369915037,0.0252559549878965,0.0439837640172532,0.0245408761756111,0.0772897724758753,0.1077691054196896,0.1311629092856121,0.0842669956992989,0.0343066843123573,0.0290025155277089,0.0758500071339366,0.0232512805932083,0.1303931293216353,0.1069311802228803,0.0942122314152633,0.1944386749292478,0.230296009290289,9.77072493932885,9.77072493932885,0.0723125711463305,0.1428994225730518,34.973946998316016,36.5064925265745,10.207029398231914,22.0,19.0,98.0,85.0,3.1511415869842034,1
425.0078122,9.960592173752149,10.043863436329634,10.558583188582409,10.74360443283131,0.0346204780612914,0.0178683613246926,0.0257470516908867,0.0405995280018707,0.0261712848785119,0.0823780155625898,0.102257653077622,0.1497781025413387,0.0870513580416394,0.0368168011402697,0.0290141931213206,0.0756721056502024,0.0255147724934069,0.1363611903367927,0.1037311426197291,0.092463372929746,0.198311566892063,0.2310644222983067,9.777665876426592,9.777665876426592,0.0723023570595402,0.1428572961085892,34.96865489797168,36.499923916385264,10.09329933080508,22.0,19.0,98.0,85.0,3.1511415869842034,1
426.0078122,9.961121822413212,10.051183903299844,10.574531853254268,10.718470495873916,0.0343682067908732,0.0178321108454407,0.0257894046531453,0.0387845820489692,0.0268650315666669,0.0812276594746353,0.0970597030008454,0.1507006273326998,0.0886233709113352,0.0391402881021091,0.0301122823849781,0.0735892824362561,0.0278750790014254,0.1403786679569767,0.0982506052077218,0.0970737344628629,0.1966488498747668,0.2303645869686815,9.776972500059657,9.776972500059657,0.0722998474788944,0.1428174257211737,34.963403799102025,36.49354934411865,10.09329933080508,22.0,19.0,98.0,85.0,3.1511415869842034,1
427.0078122,9.963400187268688,10.055299399949211,10.60012824420891,10.695977357324068,0.0335632412886165,0.0176496064202845,0.0254586661388246,0.0393858998536805,0.0259137597882643,0.0729826917674,0.0937089270137174,0.1363185272075172,0.0884445029169048,0.0381691461744232,0.0318067427487489,0.0710624937429931,0.0287873440089237,0.1358182766542781,0.0926017659402381,0.1038378792292217,0.1897084067123623,0.2273369173558892,9.768011795137957,9.768011795137957,0.0722911611249921,0.1427703292301016,34.95823777767402,36.48714924297182,10.0139884232768,22.0,19.0,98.0,85.0,3.1511415869842034,1
428.0078122,9.965929255614046,10.054139841513782,10.616370437148657,10.683332862738377,0.032845972107861,0.01749890376196,0.025122498243674,0.0427024263097792,0.0242453064400327,0.0628197501216027,0.0913069525349819,0.1195254252926805,0.0868996756300533,0.0345711118422004,0.0332553940089027,0.0706962549459052,0.0274815025850881,0.1208299446155173,0.088308176931157,0.1086764835445659,0.1805187063129182,0.2222914280093205,9.755345868690169,9.755345868690169,0.072290842121787,0.1427260180648753,34.95306906402577,36.48076328371606,10.0139884232768,22.0,19.0,98.0,85.0,3.1511415869842034,1
429.0078122,9.967859301212222,10.05136961590077,10.627428079698236,10.693737420444275,0.0324193851588424,0.0174336484472123,0.0248767149506872,0.0482508008597619,0.022999099705039,0.0550624579468537,0.0903181711300942,0.1073793303974333,0.0843977623032548,0.0307802548144008,0.0338752092989373,0.0727188924905945,0.0249934195285835,0.1036998512171515,0.0867763810154358,0.1096177077032882,0.1726922119238349,0.216944514583693,9.744316296603376,9.744316296603376,0.0722927745244678,0.1426844343886479,34.9480391096731,36.474346390120665,10.0139884232768,22.0,19.0,98.0,85.0,3.1511415869842034,1
430.0078122,9.968670658562637,10.05061551044481,10.64920332190032,10.735855079403947,0.0321510869173062,0.0174240654987836,0.02466235265786,0.0548167473946767,0.0225452561315334,0.0513329134231476,0.0932008579456113,0.0980008668715662,0.0817083002139033,0.0274435363085828,0.0335524336138205,0.0752437624856617,0.0232719458690606,0.0951684648614381,0.0879396816210306,0.1071466287863083,0.1683377275985931,0.2134506743042379,9.739277717649587,9.739277717649587,0.0722902933775943,0.1426444442963206,34.94306605648086,36.46785460346416,9.967714801747064,22.0,19.0,98.0,84.0,3.1511415869842034,1
431.0078122,9.967960450363403,10.0513226532557,10.68322667930314,10.801885912856807,0.0318562960845485,0.017460847859801,0.0245151014540301,0.0607504802569793,0.0230538754774865,0.0521812542896221,0.1011721783643433,0.0891072149532945,0.0805829144684701,0.0244571979755759,0.0327146700825322,0.0783694181762441,0.0236224658774263,0.0979598585178713,0.0903310906948609,0.1031816463824998,0.1674147770333828,0.2130318250344002,9.74242517430218,9.74242517430218,0.0722949840388722,0.14260640002891,34.938072182245286,36.46133612216568,9.967714801747064,22.0,19.0,98.0,84.0,3.1511415869842034,1
432.0078122,9.96609783426347,10.051370732864996,10.71744541161689,10.865338939430444,0.0312749178443464,0.017457581876976,0.0244064782751509,0.0642401781486767,0.0245696295782431,0.0565035673678187,0.1104445575526739,0.0824280730582038,0.0819099212630981,0.0235067622798414,0.0320552250719142,0.0835714815200832,0.0259650973088239,0.1064154478766929,0.0926087281470017,0.0995966571932626,0.1683215914426049,0.2152822470710792,9.752916144954446,9.752916144954446,0.0722984806762933,0.1425692572968249,34.93301204043469,36.454787877179406,9.967714801747064,22.0,19.0,98.0,84.0,3.1511415869842034,1
433.0078122,9.96394960473272,10.04972488821618,10.733993601467215,10.89002830201867,0.0303769386081042,0.0173396723528328,0.024148739001435,0.0639229639112764,0.0263096924131357,0.0625588194425673,0.1141673963418553,0.0795058318262565,0.0840262107767854,0.0262413552191814,0.0317109022381185,0.0889602531462892,0.0290156039864061,0.1140363009092468,0.0945694583708451,0.0968418388218015,0.1690383099885285,0.2185784822296004,9.766260693343826,9.766260693343826,0.0722991267491201,0.1425277573992119,34.928173569083874,36.4482330119646,9.967714801747064,22.0,19.0,98.0,84.0,3.1511415869842034,1
434.0078122,9.962319447092176,10.046714181469032,10.713421754634137,10.860330529032126,0.0296694130906569,0.0173361387644656,0.0237534653840641,0.060251367848304,0.0272027761663256,0.0700252272161003,0.1094843536864217,0.0791045454323931,0.0848934720674967,0.0306157932298483,0.0311294329820132,0.0897441698192682,0.0312183725366028,0.1184945043848314,0.0968712079257502,0.0942194448784534,0.1682078427770644,0.2212090916652424,9.775848312352112,9.775848312352112,0.0723050619003749,0.1424900760688908,34.92340333622719,36.44167808781371,9.951064302546852,22.0,19.0,98.0,84.0,3.1511415869842034,1
435.0078122,9.9611781199559,10.0429419685736,10.656670437152563,10.80468121572194,0.029673097347477,0.017779719477331,0.0236673464161434,0.0554872966157822,0.0270719501228491,0.0773610550133204,0.0999079172738514,0.0799271378597831,0.0845027466388175,0.0324093351750045,0.0299780321671024,0.0849601625490071,0.0316019615060611,0.120757276514362,0.0997853616120999,0.0916846983307083,0.1655827557328695,0.2223365478515598,9.778393898488805,9.778393898488805,0.0723049214472214,0.1424476894920121,34.918485859095625,36.43529695179205,9.951064302546852,22.0,19.0,98.0,84.0,3.1511415869842034,1
436.0078122,9.959880608204209,10.03843002045265,10.598167614666435,10.765349742208237,0.0302832013721576,0.0185397270668387,0.0242448296728564,0.0508992283624388,0.0265062382863675,0.0799745962862795,0.0906833757179421,0.0813895702659272,0.0836475507333354,0.0305496112785126,0.0286681329684934,0.0793427786311501,0.0301462877948464,0.121336772781674,0.1030914441979816,0.090647040128039,0.161806309027878,0.2221104846245763,9.776022486841384,9.776022486841384,0.0723112096745948,0.142403291476291,34.913637545790685,36.42888706532864,9.951064302546852,22.0,19.0,98.0,84.0,3.1511415869842034,1
437.0078122,9.958850144698252,10.03407948000172,10.57235524420424,10.755320695376328,0.0310948110651709,0.0190495557563901,0.0251471623739857,0.045845900102033,0.0262894903780357,0.0756034756655904,0.084724952673204,0.0824878764794495,0.0824088951126001,0.0274684258305517,0.0278994185324877,0.0765561491813719,0.0279737031111421,0.1183518258542533,0.1067234041137838,0.0928142557187708,0.1580593335218564,0.2211120551527661,9.771564206478493,9.771564206478493,0.0723145890282171,0.1423681470680615,34.9088614267648,36.42240486406386,9.959302894068204,22.0,19.0,98.0,83.0,3.1511415869842034,1
438.0078122,9.959012328233412,10.031618438188865,10.58043631387528,10.763752021936709,0.0321401008402253,0.0189271544102281,0.0256711753946004,0.0407995854788399,0.02710513404388,0.0680863932121557,0.0829936410845064,0.0827780905459182,0.0810396728265109,0.0250448126432867,0.0279896577922734,0.0754212986558545,0.0264346165266964,0.1109571094363237,0.1101260292327621,0.0978146793460361,0.1557261701353148,0.219863827818291,9.76671160095202,9.76671160095202,0.0723205441393967,0.1423268440701425,34.90396318753781,36.41592145719909,9.959302894068204,22.0,19.0,98.0,83.0,3.1511415869842034,1
439.0078122,9.960029523617864,10.031198089896805,10.6045934164607,10.780615107668128,0.0335711013897208,0.0183637936445944,0.0255740352095684,0.0378949099675613,0.028889938619004,0.0629348565111612,0.0857637920357103,0.0839293655381051,0.0805342005458672,0.0237291722782103,0.0284993357701456,0.0740064487547875,0.0257059281920475,0.1029902391478489,0.1116190717896544,0.1024757533301845,0.1558124225929512,0.2187845890050971,9.764260773484589,9.764260773484589,0.0723321213240817,0.1422886287710109,34.89916482279255,36.40938795908733,9.959302894068204,22.0,19.0,98.0,83.0,3.1511415869842034,1
440.0078122,9.96099685568702,10.031860766621534,10.627564745261497,10.797282276925923,0.03471542384452,0.0178884611674901,0.0252946502179088,0.0378183136441593,0.0304254868967603,0.0616500068429187,0.0911328593307805,0.0887689874532215,0.0814679874896219,0.0239404713538561,0.028664889417104,0.0721546391155216,0.0256879417854731,0.100068323030693,0.1095144145641809,0.1049009710388462,0.1581807427201632,0.218249460110741,9.765451551890015,9.765451551890015,0.0723445018449911,0.1422476400150078,34.89443020726171,36.402681965543486,9.987093412547514,22.0,19.0,98.0,83.0,3.1511415869842034,1
441.0078122,9.96151557735034,10.033005597579386,10.633024305861378,10.800972983446917,0.0347189658840959,0.0177631904103104,0.0252238220626995,0.0395679613589423,0.0302368015803269,0.0620599887178376,0.0948352760888683,0.0969441428809737,0.0832663251353182,0.0254156688226594,0.028442337406005,0.0696597260630201,0.0273744465927021,0.1042776254725363,0.1039399056233565,0.106990049268208,0.1614763771740518,0.2183952217164536,9.76627801900069,9.76627801900069,0.0723584360139256,0.1422181062865755,34.889678335324426,36.39605142853205,9.987093412547514,22.0,19.0,98.0,83.0,3.1511415869842034,1
442.0078122,9.961771448825376,10.033908653168604,10.6171830404445,10.784758488996856,0.0340780326044581,0.017758044201545,0.0251160467573603,0.0423962426224624,0.0281026803161676,0.0624705758795215,0.0946741771450209,0.1030754393989724,0.0848029437654682,0.0264493944433954,0.0285797276752849,0.0663506145073826,0.0306978279045432,0.1127557945664536,0.097662021040844,0.1094042665757217,0.1640797182650108,0.2188248412778266,9.762102434853556,9.762102434853556,0.0723740933198151,0.1421861451571317,34.8850587854101,36.38940817423158,9.987093412547514,22.0,19.0,98.0,83.0,3.1511415869842034,1
443.0078122,9.962160899441868,10.034019453324555,10.59590765990434,10.756077732295388,0.0340388089538724,0.0176465305795428,0.0246977649993312,0.0452909231701066,0.0252346087424347,0.0630704940881025,0.0927439730166368,0.1027339163360072,0.0850731818384135,0.0257453912687975,0.0295706185489924,0.0632935785781049,0.0329399356784775,0.1198383688929999,0.09419017254436,0.109383673788373,0.1653659371675881,0.218703914425821,9.75425762907454,9.75425762907454,0.0723835611485365,0.1421555701447787,34.880345230093404,36.38273569958673,10.02909261163489,22.0,19.0,98.0,83.0,3.1511415869842034,1
444.0078122,9.9626985810826,10.033701728609037,10.579659026008198,10.728467730762564,0.0347822062584217,0.0175529842843182,0.0242615750475833,0.0466577009136559,0.0229728801965911,0.0645309786565233,0.0917585955962317,0.097785628189459,0.0835985484717525,0.0244977198298661,0.0309947202911396,0.0612901997803746,0.0321040025014534,0.1209046135700653,0.0941244958724665,0.1071566321961686,0.1662448441727229,0.2173348386005191,9.747978471564192,9.747978471564192,0.0723999489852576,0.1421280467278477,34.87568970916675,36.37598811948541,10.02909261163489,22.0,19.0,98.0,83.0,3.1511415869842034,1
445.0078122,9.96326226111256,10.033845995960654,10.5632349561318,10.709186912238874,0.0352987975380532,0.0176272432735237,0.0241715071898909,0.0464690634483939,0.0218563477499899,0.067559466342138,0.0925117646567411,0.0932736781869042,0.0808321467211754,0.0255513126964526,0.032059335243543,0.0598684014059714,0.0295243678990125,0.1152357165339768,0.0941627125412127,0.1078615590038704,0.1686626872635992,0.2146626610838757,9.746195886605664,9.746195886605664,0.0724172978632383,0.1421075116275723,34.87107214859304,36.36923428358418,10.02909261163489,22.0,19.0,98.0,83.0,3.1511415869842034,1
446.0078122,9.963876184752955,10.03559433374476,10.551871979076829,10.700567992330663,0.0348168151874263,0.0178056228437809,0.0244264913630465,0.0466699100190746,0.0220140917641952,0.0729730003675099,0.095141745912304,0.0935116667682783,0.0780526358912217,0.0301655940687876,0.0326496419807069,0.05875904344355,0.0275437110455334,0.10504653940782,0.0905145508890194,0.1140413562021299,0.1744631653957681,0.2112534850159072,9.748703720394603,9.748703720394603,0.072433625286883,0.142079434941201,34.86647745405982,36.36263545398805,10.08034997702032,22.0,19.0,98.0,82.0,3.1511415869842034,1
447.0078122,9.964511661003716,10.039436810941416,10.56313222211434,10.708908208160889,0.0338016231142303,0.0179690871721214,0.0248640055760524,0.0486073806030435,0.0235872034987541,0.0807635928693573,0.0996793203047057,0.1022010860221018,0.0766277470263088,0.0362249017464491,0.0332205647069948,0.0585227259164338,0.0266659684412817,0.0942680640706797,0.0831224408433714,0.1208644213110933,0.1841672712865064,0.2079557629699735,9.754255651577672,9.754255651577672,0.0724551712171054,0.1420552380243302,34.86197007940001,36.35587823754909,10.08034997702032,22.0,19.0,98.0,82.0,3.1511415869842034,1
448.0078122,9.96507821116335,10.04376778982951,10.596376161087846,10.73740564703389,0.0332499255242713,0.0181373767573921,0.0254143194433839,0.0509247059109611,0.0261550478982894,0.0890587245339436,0.1048675206151529,0.1202444404291933,0.0770197721906548,0.0396970914033907,0.0335999091136163,0.0597647953901685,0.0257166863981212,0.0887840921972522,0.0765744978059146,0.121047504656991,0.1962579552957629,0.2056450818687048,9.76086783795718,9.76086783795718,0.0724712249518313,0.1420347239211581,34.85737259694108,36.34912622557664,10.136491535168576,22.0,19.0,98.0,82.0,3.1511415869842034,1
449.0078122,9.96515642070598,10.046130099058429,10.627149171455793,10.773308320021,0.0334415667658614,0.0185888981755366,0.0260679046151765,0.0505688465031561,0.0283738288466374,0.0948794322032172,0.1084677497894569,0.1416280383158442,0.0785899174304171,0.0380089042276612,0.0329690847626962,0.0629679445813464,0.0238981349921916,0.0930673105867231,0.0760871802182127,0.1129868743026813,0.2076067552275533,0.2049751883827586,9.766732265968775,9.766732265968775,0.0724915783967525,0.1420151146055557,34.85283042257808,36.34235482740905,10.136491535168576,22.0,19.0,98.0,82.0,3.1511415869842034,1
450.0078122,9.964726985918324,10.04620465543048,10.635457192760214,10.799026528300134,0.0339564283966893,0.0196709005568963,0.0265383119716522,0.0466421200349858,0.0288354154755079,0.0963917191919293,0.1094777376049378,0.1555654157252031,0.0804707129555442,0.033166014143944,0.0311637895139802,0.0678222817807975,0.0218745987801896,0.1047122480085138,0.0816269052342015,0.1021112591711588,0.2151187984140586,0.2059544430412035,9.77149891231016,9.77149891231016,0.0725095250753846,0.1419974097864199,34.84830938878199,36.33565371699803,10.136491535168576,22.0,19.0,98.0,82.0,3.1511415869842034,1
451.0078122,9.96493565881375,10.045592609036031,10.623822862343664,10.810305544695533,0.0344475929020183,0.0212218313550834,0.026403141610843,0.0420023527760229,0.0273376887471167,0.0941700148994553,0.1086847984415405,0.1563591793006414,0.0820362813473738,0.0305831442845265,0.0290545186670068,0.071971576997125,0.020743143355379,0.1150231897756032,0.0876251637300247,0.0946093927771917,0.2174798332866882,0.2078165761020662,9.774931536372584,9.774931536372584,0.072527222152207,0.1419809589318195,34.84388828455015,36.328852111518366,10.193731013348472,22.0,19.0,98.0,82.0,3.1511415869842034,1
452.0078122,9.966250967396334,10.045461386341575,10.600458036012268,10.814675582178069,0.0348533992650152,0.0223141002267956,0.025896981080813,0.0399340796828994,0.0251283072583923,0.0907131950337825,0.1065179403040839,0.1510444705548831,0.0828697196803084,0.0333056781914473,0.0277335603500854,0.0729853265902811,0.0208666849308476,0.1168881843646974,0.0892148199492496,0.0926986235617116,0.2152821623426784,0.2096934817426415,9.775670521439274,9.775670521439274,0.0725419212121585,0.141962899734996,34.839515559726024,36.322111609289,10.193731013348472,22.0,19.0,98.0,82.0,3.1511415869842034,1
453.0078122,9.967428374640289,10.0464782435999,10.568173214389155,10.82386580413912,0.0349343499633565,0.0220681008792874,0.0257170449946832,0.0407931035890031,0.023533679201669,0.0880816235608718,0.1022107140226349,0.1498126808534898,0.0831835710677817,0.0381404144234586,0.0278104699569999,0.0715786109962973,0.0221356574664448,0.111826542221197,0.0873852755896585,0.0956464440916323,0.2096084596326091,0.2114963195454544,9.772158417769528,9.772158417769528,0.0725591013011916,0.1419487149919557,34.83511348686246,36.31541889058493,10.248788994279298,22.0,19.0,98.0,81.0,3.1511415869842034,1
454.0078122,9.967300678924852,10.048337999930498,10.547699305426738,10.844970802111964,0.0341223760805435,0.0206555512458815,0.025888927795399,0.0428518924062504,0.022724846519662,0.084733009598,0.095446372066023,0.1487808217844201,0.083751423139276,0.0401000550191606,0.02919808827565,0.0697569320670635,0.0246246278322307,0.1072330236602015,0.0863522843877866,0.1026327473898045,0.2009146939619829,0.2138084771997347,9.764159483316728,9.764159483316728,0.0725751423271621,0.1419352094120775,34.83080409227031,36.30870426386264,10.248788994279298,22.0,19.0,98.0,81.0,3.1511415869842034,1
455.0078122,9.96604143096882,10.047849396527168,10.570345975747248,10.865080560992798,0.0324420735739261,0.0189931201607386,0.0258821080950896,0.0452917609267201,0.0222245239334427,0.0775994874837691,0.087297276691181,0.137589394154712,0.0848716082871406,0.0389829367009059,0.031015238590707,0.067978598872212,0.0281102778985779,0.1081523507989916,0.0870239247439226,0.1116343256319418,0.1897334369784053,0.216893963831409,9.755124452734815,9.755124452734815,0.0725948016899131,0.1419194196908114,34.82643816356372,36.30195326073929,10.248788994279298,22.0,19.0,98.0,81.0,3.1511415869842034,1
456.0078122,9.96485105377351,10.042501956968572,10.627827626736066,10.86438082497352,0.0309554967414497,0.0177350501225482,0.0255621859180552,0.0486890827150848,0.0218382658033407,0.0679347770487014,0.0801151515503841,0.1191059352587172,0.0859432432635023,0.0372175276013254,0.0319890814092991,0.0671376759918874,0.0316192932397909,0.1139153961468424,0.0869018549171871,0.1168333956247995,0.1778975999736731,0.2201647891161779,9.75180130128455,9.75180130128455,0.0726132835472173,0.1419073676250225,34.82214444852741,36.29518647972397,10.298807549949387,22.0,19.0,98.0,81.0,3.1511415869842034,1
457.0078122,9.964706355849732,10.035698139081378,10.67450015924455,10.848901515776978,0.0304051934277303,0.016955570804458,0.0250944273524083,0.0527816373525785,0.021735887523233,0.0601838555940192,0.0765291585651786,0.1047956147654485,0.0864388001612283,0.0351935232286328,0.0316439189479833,0.0694246825746128,0.034442460989706,0.1211301778827395,0.0852301033491571,0.1135342755279532,0.1681285625266958,0.2226892937645357,9.756675826286443,9.756675826286443,0.0726275770572807,0.1418940218408637,34.817757059401536,36.28843522722919,10.298807549949387,22.0,19.0,98.0,81.0,3.1511415869842034,1
458.0078122,9.965379806514278,10.032128698236942,10.681342914942793,10.832113326812015,0.0303624451581582,0.0164737704452976,0.0244732704009697,0.0558726954681724,0.0221693901145341,0.0566546616613125,0.077764927015975,0.0985960089316173,0.0865126460477773,0.0329275459245901,0.0307834030208925,0.0743735462934254,0.0364373122965539,0.1275813485403721,0.0838930665107233,0.1051847033204041,0.1622177146564676,0.2238631456765675,9.763202421088652,9.763202421088652,0.0726412447175644,0.1418794211312314,34.81343850532671,36.28156338427231,10.298807549949387,22.0,19.0,98.0,81.0,3.1511415869842034,1
459.0078122,9.96634626755256,10.03147610055554,10.661505268305294,10.80621259597072,0.0303036362624487,0.016240702547169,0.0237280071491319,0.0566793629915696,0.0231672193603154,0.0573636522992171,0.0833564573613508,0.0958175820452846,0.0863026282779623,0.0316648017337347,0.0303311525465547,0.0775752384686396,0.0368014307296219,0.1316746073480842,0.0845529401788351,0.0989344697863572,0.1598903315194568,0.2234736170767121,9.7628265353063,9.7628265353063,0.0726493237107332,0.1418701894136846,34.80937755101613,36.27481852663297,10.341324131181954,22.0,19.0,98.0,81.0,3.1511415869842034,1
460.0078122,9.967484557817906,10.032084025133129,10.650477230384782,10.77346592186506,0.0305139325379881,0.0164914455652742,0.0231188723543505,0.0558011612398106,0.0242327627744719,0.0605070869131295,0.09113915143768,0.0919551347405268,0.0856160234612331,0.0323882312702858,0.0303766083561158,0.0751428979849139,0.0346287207935715,0.130273328377441,0.0874511478223259,0.0971853100452145,0.1593489968041117,0.2215276721881001,9.754273016654569,9.754273016654569,0.0726546863115034,0.1418594127653817,34.80512732884779,36.26799996810073,10.341324131181954,22.0,19.0,98.0,81.0,3.1511415869842034,1
461.0078122,9.96826223503896,10.035303567457223,10.665895105714071,10.75917903432128,0.0313168464817087,0.0174982061707706,0.0229071914521064,0.055119101465548,0.0246931270491998,0.0614731663800181,0.0969492701762865,0.0869125310454151,0.0843467628853549,0.0358226125411122,0.0305234736363605,0.0678882137826995,0.0308108108135907,0.1222406711124211,0.0917728172530458,0.0982751346261312,0.1586908242008956,0.2183063762446564,9.745306731118967,9.745306731118967,0.0726602387158489,0.1418546267975818,34.80078146797464,36.2611571530579,10.341324131181954,22.0,19.0,98.0,81.0,3.1511415869842034,1
462.0078122,9.967993022520028,10.04277044164626,10.694314908161717,10.771774416119689,0.0320291924994675,0.0189523827127674,0.0231121339360395,0.0560000148887628,0.0245263807007783,0.0576045534433394,0.0972439542886982,0.0821199544400376,0.0825571193872381,0.0414331991831776,0.0302963358986592,0.0604556990972096,0.027268501084447,0.112362301574597,0.0961459946852791,0.0999876836528788,0.157051533924187,0.2143420660025837,9.746101249785724,9.746101249785724,0.0726684014478474,0.1418429279216809,34.79641025491134,36.254246535264,10.374325951996669,22.0,19.0,98.0,80.0,3.1511415869842034,1
463.0078122,9.96700937971053,10.052502876237623,10.718489622543926,10.796586711525084,0.0317090837020336,0.0197928621435716,0.0234444447589208,0.058767057102485,0.0242792576599421,0.0527429341136105,0.0929007283228876,0.0781153940442763,0.0807600723560244,0.0447147435747727,0.0293601298948448,0.05687534514703,0.0247342553405612,0.1066630967588624,0.098933574754356,0.0994143294256848,0.154854454863773,0.2101182822245101,9.758914962679002,9.758914962679002,0.0726754006412755,0.1418355525618072,34.79219356436518,36.24742297506417,10.374325951996669,22.0,19.0,98.0,80.0,3.1511415869842034,1
464.0078122,9.96625083090774,10.059073529341983,10.732250554541515,10.820576873785235,0.0305805816340702,0.019263113197726,0.0235250694576956,0.0629521257286516,0.0242042209621991,0.0515905201188403,0.0878432294007608,0.0761370604301611,0.0799413776154224,0.0408664519632797,0.027960718808394,0.0571880549085766,0.0227515641793411,0.1061573172244439,0.0984538302075848,0.0945652165675251,0.1531321985445767,0.2059416676885037,9.775656546863951,9.775656546863951,0.0726825530043217,0.1418269044888356,34.787926451740816,36.24057826448394,10.374325951996669,22.0,19.0,98.0,80.0,3.1511415869842034,1
465.0078122,9.966086744005738,10.058345185489127,10.732023714423784,10.833917954796645,0.0297690355686516,0.0179142770182942,0.0233966009714742,0.0665158044738935,0.0240048547208645,0.0533646017285162,0.0841170436911459,0.0782590714490858,0.0805364678360755,0.0316734973497878,0.0269050737515369,0.0588554110357983,0.0210323804573948,0.107781206797881,0.0943091218507139,0.0874797306542057,0.1526545535067763,0.2022819907808583,9.786758853721212,9.786758853721212,0.0726808792532143,0.1418162735103248,34.783726257839625,36.23375266758497,10.3963623513023,22.0,19.0,98.0,80.0,3.1511415869842034,1
466.0078122,9.966476833250784,10.052123900969487,10.720213193039916,10.832442465569368,0.0301057031073593,0.0169498392750592,0.0235571395399458,0.0663636474327625,0.0233643711061208,0.0548723362390842,0.0808540477556936,0.0840622614242016,0.0822386676564877,0.0231269133984416,0.0268518397217357,0.0608221896158558,0.0198404045786442,0.1086355853159995,0.0885893981793889,0.0825213229250515,0.153728190523142,0.1999713798484357,9.788667671434537,9.788667671434537,0.0726883604674033,0.1418067839628784,34.77945925710389,36.22689043642632,10.3963623513023,22.0,19.0,98.0,80.0,3.1511415869842034,1
467.0078122,9.967628015625962,10.046457050780544,10.70625250431539,10.826277844135674,0.0316217162791177,0.0169963967078102,0.0242243284477764,0.0609591097948164,0.0224402464712581,0.056294732847807,0.0778222273930161,0.0905683047145754,0.0847850283940236,0.0180183619728248,0.0276664497548557,0.063684160190922,0.0195748024350731,0.1080974166333837,0.0840361481591142,0.0824469751657124,0.1567010193227681,0.1999002785813594,9.783429859455664,9.783429859455664,0.0726955251108323,0.1417968166027672,34.7752681239078,36.220005865157965,10.406664089598364,21.0,19.0,98.0,80.0,3.1511415869842034,1
468.0078122,9.969221207728284,10.045368774733156,10.68988239853212,10.823469925281389,0.0336696122314345,0.0181361614077432,0.0251186864607538,0.0518609798258959,0.0217475153523781,0.0605141222489699,0.07689362780093,0.0980650137662763,0.0878409543924443,0.0154252105818494,0.0284813766726137,0.0671420708344819,0.0204284919322772,0.1076761569180514,0.0811368798866169,0.0875602892410957,0.1620978091892403,0.2024347434435242,9.775598349171768,9.775598349171768,0.0726919588325042,0.141780589020747,34.77098373837976,36.21305845352376,10.406664089598364,21.0,19.0,98.0,80.0,3.1511415869842034,1
469.0078122,9.970066652924196,10.04786842917443,10.660135068270575,10.82169020300788,0.0354912464769192,0.0203811272989612,0.0259397752686104,0.0428917214052115,0.0216887854713523,0.0683433468752739,0.0796127807322285,0.1103011036463366,0.0907009025426461,0.0143464691220365,0.0286047955666755,0.0710536424084272,0.0223617287727346,0.1095024622952667,0.078082341587924,0.0965702859035363,0.1697819071669579,0.2070028701795573,9.768974014431343,9.768974014431343,0.0726869055281845,0.1417683248897231,34.766726919600366,36.20627722798595,10.406664089598364,21.0,19.0,98.0,80.0,3.1511415869842034,1
470.0078122,9.969931154761271,10.051390193955562,10.61876747805166,10.83148757551466,0.036982349548457,0.0230030770765205,0.0263207770245677,0.0375435373903911,0.0223034110811574,0.0771096340061936,0.085461878065528,0.1241853001922525,0.0926344492951922,0.0149950745417306,0.0283701382549999,0.0766765952777785,0.0252259873827941,0.1134994732900874,0.0735838278955535,0.1070973512596879,0.1781320876151721,0.2120717177532286,9.764766787209984,9.764766787209984,0.0726827850514877,0.1417526191057377,34.76271954869704,36.199403897501,10.405214321023228,21.0,19.0,98.0,79.0,3.1511415869842034,1
471.0078122,9.969855563931644,10.055287771705384,10.589701943111882,10.872720377343905,0.038502868085451,0.0242188667510648,0.0258919452677821,0.0367036621666635,0.0236043169227272,0.0832726656502164,0.0922370371857827,0.1298007715025869,0.0930096358322059,0.0184063250303042,0.0288506034213445,0.0827781744002911,0.0283505220127605,0.1157530898556919,0.0691202306961616,0.1158876188781407,0.1845762786367786,0.2156611301626041,9.762261284156944,9.762261284156944,0.0726740730218111,0.1417319859343356,34.758608683494444,36.19253059122694,10.405214321023228,21.0,19.0,98.0,79.0,3.1511415869842034,1
472.0078122,9.970432098719026,10.059489258232922,10.592805148069877,10.93311507419872,0.039764168365489,0.0230415185246974,0.0250249609770638,0.0390930209173563,0.0257741645700188,0.0850622878593651,0.0973381744341598,0.1256375900018204,0.091548230214001,0.0251201390129606,0.030673790499463,0.0842931704563183,0.0302106226294024,0.1118584599505414,0.0676437903055963,0.1195180917192943,0.1871277448953804,0.2163519367303399,9.760079407537749,9.760079407537749,0.0726663477937956,0.1417166511625787,34.75450199247887,36.18572279673983,10.39273485860453,21.0,19.0,98.0,79.0,3.1511415869842034,1
473.0078122,9.971681262162669,10.062341799172556,10.62032534799091,10.965843865431912,0.039746066904802,0.0205479651591506,0.0244676909731572,0.0433402488556419,0.0281820798759953,0.0828195815016872,0.0990497056813215,0.1190501783409598,0.0891194313745379,0.0330869366514455,0.0330939829582559,0.0793989870655771,0.0300289188242413,0.1037863342448034,0.0703807421059028,0.116581696365743,0.1853460128664824,0.2141242767118832,9.757713564435178,9.757713564435178,0.0726574535542368,0.1416996190486891,34.750260095644705,36.17890380499168,10.39273485860453,21.0,19.0,98.0,79.0,3.1511415869842034,1
474.0078122,9.973347021803765,10.06143091000946,10.657852902706717,10.950064929804466,0.0379558894302206,0.018336280479198,0.0242070854256656,0.0486322872527676,0.0292033674759182,0.0776473356510594,0.0969385054865278,0.1118611016588903,0.0871078553805672,0.0383769051670488,0.0343896360449643,0.0724937840039498,0.0290181817405165,0.0991220862804779,0.0761848344963217,0.1083942032044716,0.1801814189113306,0.2101831396018161,9.756215018755237,9.756215018755237,0.0726456575779125,0.1416845577656837,34.74609508421544,36.17202976111534,10.39273485860453,21.0,19.0,98.0,79.0,3.1511415869842034,1
475.0078122,9.974462515859802,10.055836905953177,10.703448012727495,10.915741237127284,0.035168787458952,0.0170308605060116,0.0239271990609521,0.0536314148685423,0.0283303178415596,0.0708221431328728,0.0921164184600826,0.1023415403592867,0.0857304367072267,0.0389348898907019,0.0334653597266385,0.0676455208773898,0.028494392626169,0.1008006508256629,0.0828321485269419,0.0975840060810034,0.1734426714386937,0.2059310356397616,9.756512637377616,9.756512637377616,0.0726274165943633,0.1416690157895941,34.742007564437415,36.16517139369997,10.370583178725257,21.0,19.0,98.0,79.0,3.1511415869842034,1
476.0078122,9.974223447163045,10.047926125875977,10.748493158903722,10.898458870093071,0.0328135051145996,0.0165218671195801,0.0238627548173377,0.0567003917947091,0.0268259468343326,0.0642015598611128,0.087183760065177,0.09436296043825,0.0844910201670404,0.0358256085222209,0.0310607738946785,0.0651258856202133,0.028166697318478,0.1040235212778901,0.0871333082639617,0.0884431231671181,0.1672737564264588,0.2022140495299384,9.758015793138304,9.758015793138304,0.0726085033953035,0.1416450307926383,34.73783293746877,36.158419293830704,10.370583178725257,21.0,19.0,98.0,79.0,3.1511415869842034,1
477.0078122,9.972953596804487,10.041512817189854,10.774656914615331,10.8911277548152,0.0318031583808849,0.0164200268402573,0.0241374416705098,0.0576749968982149,0.0256478665959863,0.0598102419220669,0.0846613149495652,0.0916313762716869,0.0836941050529125,0.031568280122212,0.0289907486159056,0.0633813766615803,0.027306008652753,0.1039089496999949,0.0860596167404687,0.0861852786830435,0.1634240524021461,0.1994649208014725,9.759314150738602,9.759314150738602,0.0725928752565728,0.1416230303309974,34.733524962270145,36.15181247401735,10.370583178725257,21.0,19.0,98.0,79.0,3.1511415869842034,1
478.0078122,9.9717574289368,10.038716467213394,10.776041333258757,10.86507425007123,0.0319467377040077,0.0163600032791818,0.0242831814946888,0.057199228144995,0.0247552174135416,0.0587205916811011,0.0851933101116966,0.0934068987497663,0.0839040976789819,0.0290299162126075,0.0283018765742226,0.0604307704090638,0.0261555863176022,0.1004118205980846,0.0800756613727086,0.0924820324132054,0.162464108706558,0.1981728060644877,9.759554081739228,9.759554081739228,0.0725651652389971,0.1416006138278304,34.72935588599344,36.14500952409863,10.340586110699824,21.0,19.0,98.0,78.0,3.1511415869842034,1
479.0078122,9.971190601044896,10.039270766793289,10.753946996259886,10.822710511278691,0.0322737492077835,0.0164358575253987,0.0240117912394994,0.054751012764755,0.0242295864594387,0.0606919731321047,0.087468756298258,0.0990310114926512,0.0847681121185181,0.0296826212767474,0.0288531261180277,0.0555815427278429,0.0253566489108841,0.096847047501789,0.0736924816521467,0.1030391774882298,0.1635532624748356,0.1989411438018832,9.758930029828008,9.758930029828008,0.0725492288073534,0.1415788672237805,34.72514163637996,36.13843912353405,10.340586110699824,21.0,19.0,98.0,78.0,3.1511415869842034,1
480.0078122,9.97071102850679,10.04155667449024,10.709309806820578,10.801668208704738,0.0318312150879321,0.0171582875497163,0.0236180571197554,0.0499572503048223,0.0242366427373283,0.0643161391285507,0.0898123075671303,0.1056228844563872,0.0855561473320696,0.0318769863369182,0.0301184299705334,0.0505566403046892,0.0250107872552743,0.0965580493125611,0.071418210200722,0.1122640516230423,0.1649422755003569,0.2019904230700368,9.757772346019662,9.757772346019662,0.0725241345814979,0.1415573805516832,34.72114493560106,36.13184191992449,10.340586110699824,21.0,19.0,98.0,78.0,3.1511415869842034,1
481.0078122,9.970118464312243,10.043695892079608,10.66344937753918,10.822948236077892,0.0304484400755924,0.0188875112656842,0.0234766470513371,0.0444424581782963,0.0242537197732196,0.067122783141272,0.0916360417627663,0.1065859588709501,0.0859826958253065,0.0332536314703036,0.0315148704316303,0.0473391971211441,0.0249519650847881,0.100319403871601,0.0741662277472403,0.1199515189877428,0.1650631276887708,0.2065785145651712,9.756108827295217,9.756108827295217,0.0724991440725526,0.1415291507697975,34.717002612553095,36.12519073525265,10.30485298651868,21.0,19.0,98.0,78.0,3.1511415869842034,1
482.0078122,9.969752118570105,10.043944063208546,10.645325240420869,10.859086061774754,0.0289151787214458,0.0211800226995157,0.0236599928948398,0.040751592256159,0.0235696449727302,0.0666603634199019,0.0925325846510597,0.1007411641614065,0.0858503686822176,0.0335314515323056,0.0324196449288351,0.0461422632220867,0.0251973684779144,0.1060193413258964,0.0793078209157144,0.1281916461305466,0.1635341919186989,0.2108424407727035,9.75513091331996,9.75513091331996,0.0724768470263902,0.1415083386843582,34.71281921088696,36.11863999197104,10.30485298651868,21.0,19.0,98.0,78.0,3.1511415869842034,1
483.0078122,9.969214253234872,10.04185760087264,10.648479602416536,10.87374900420494,0.0283801963913292,0.0226225587337603,0.0239506466199732,0.0408488028075132,0.0223852889131943,0.062709298637583,0.0911144305088711,0.0950138234893408,0.0849174455371454,0.0331740153479652,0.0325709179312455,0.0464390982568109,0.0257266699962511,0.1098514647512076,0.0826254977169604,0.1329223348450603,0.1612928836003182,0.2125409470827505,9.756920423642567,9.756920423642567,0.072443690639369,0.1414801913665864,34.708572990646,36.11204222980529,10.30485298651868,21.0,19.0,98.0,78.0,3.1511415869842034,1
484.0078122,9.968148321095786,10.039948665203552,10.64256520764516,10.868195155932154,0.029458024513444,0.0220920609716654,0.0240672658207577,0.045191080373146,0.0215380547494931,0.0577535903845752,0.0869561548881734,0.0952710105009641,0.0834539884919241,0.0323083861360597,0.0322886625737077,0.0483741841912489,0.0261767074554996,0.1086073986020529,0.0812087720646513,0.1280135894858326,0.1596763901291733,0.2105709857178877,9.761369159895407,9.761369159895407,0.072408532256723,0.1414512722490647,34.704356019766806,36.10561148813499,10.30485298651868,21.0,19.0,98.0,78.0,3.1511415869842034,1
485.0078122,9.966800258927844,10.041133475470955,10.623663024922587,10.867331735586726,0.0317192069952616,0.0202320601279387,0.0240845700350557,0.0514343006556531,0.0213868399722623,0.054272132146651,0.082431550786553,0.1004944462564998,0.0822243675346596,0.031646487582694,0.032098464983946,0.0521321947976071,0.0260516355550837,0.1030013610095503,0.0767820837768321,0.1153949904804366,0.1592762461990506,0.2060360183661706,9.765642696017249,9.765642696017249,0.0723780546923227,0.1414225009828101,34.70012492164673,36.099207569345005,10.265608600014383,21.0,19.0,98.0,78.0,3.1511415869842034,1
486.0078122,9.96514498836416,10.044942155154017,10.621847354532193,10.881062479429234,0.0339128917631821,0.0186526002588013,0.0244046104630785,0.0552720869732248,0.0218116124188992,0.0525497841507226,0.0803905820666651,0.1052618524834187,0.081942773645446,0.031759340984475,0.0322854791584679,0.0566886768740047,0.0252601555111749,0.0976472818798977,0.0743747445866024,0.1026108591895829,0.1596415276253868,0.2016150181936317,9.767039820809153,9.767039820809153,0.0723438447963195,0.1413897247667614,34.69588355597755,36.09267271711764,10.265608600014383,21.0,19.0,98.0,78.0,3.1511415869842034,1
487.0078122,9.963665576721947,10.049028194262192,10.65256694760037,10.8949550626032,0.0348954177349967,0.0180497628239712,0.0250669723158633,0.0548151806929608,0.0227295158744684,0.05182623258603,0.0813880666725893,0.1051318593424933,0.0830342923975582,0.0324649830637242,0.0327998636201895,0.0601748458715006,0.0243344809252357,0.096209188302583,0.0762606425732093,0.0957818730029108,0.1599965052392163,0.1996182697057174,9.76492286273725,9.76492286273725,0.0723089123167599,0.141354211586795,34.691780692968884,36.08617117349838,10.22506755312562,21.0,19.0,98.0,78.0,3.1511415869842034,1
488.0078122,9.963415884292983,10.051770974476057,10.685159990802266,10.889632836407976,0.0345714131494683,0.0179919608195661,0.0255601882206618,0.053118607819223,0.0237711316749668,0.0517775772354405,0.0850321256943381,0.0998851936465928,0.0852972503712106,0.0346120966012726,0.0334315544357631,0.0610421083955314,0.0239873795095859,0.0976956556393045,0.0802768951749839,0.0973144595473586,0.1600320149358544,0.200486724225284,9.760557534766168,9.760557534766168,0.0722719900866312,0.1413228607308974,34.687475816685605,36.079792819746885,10.22506755312562,21.0,19.0,98.0,78.0,3.1511415869842034,1
489.0078122,9.9641478457349,10.052252626267045,10.684326859585555,10.857953062394271,0.0336667705277385,0.0179895496839435,0.0255796570698388,0.0537804248732601,0.0243076587071323,0.0520957596043702,0.0915741695000108,0.0927727728448694,0.0874249760785971,0.0396992688203548,0.0339906559487086,0.0586764927085638,0.0244686259556984,0.0985884775809851,0.084572969706953,0.1030679142731483,0.1598780584373217,0.2029337434713458,9.756116950637816,9.756116950637816,0.0722344870421489,0.1412891792856862,34.683101675187146,36.073450481860775,10.22506755312562,21.0,19.0,98.0,78.0,3.1511415869842034,1
490.0078122,9.964643069362443,10.05037574454716,10.661647741938502,10.806776531143033,0.032544247837251,0.0180959083799855,0.025564857056864,0.0551836896545055,0.0242498221577395,0.0521562279423282,0.0991113879197315,0.0872247433336391,0.0878942812618458,0.0464856729330458,0.0343396457113707,0.0541554071540249,0.0254638297933441,0.0973124951785938,0.0901697000516663,0.1048745558671211,0.1595619899935251,0.2052934829751582,9.752721543953095,9.752721543953095,0.0721947017770911,0.1412487826826148,34.678693739582485,36.06723470139408,10.1853460359962,21.0,19.0,98.0,77.0,3.1511415869842034,1
491.0078122,9.964205639271146,10.04651078735708,10.659031559777327,10.757789345730076,0.0310907829249599,0.018533909517897,0.0259490081885714,0.0538695699965048,0.0238343822508316,0.0521835470505026,0.1025149258354478,0.0841563087147559,0.0867015258564295,0.0509973293066001,0.0343373268472087,0.0499627130502076,0.0265558930381261,0.0952746506285582,0.0965774117432203,0.1013844302061112,0.1589133915357554,0.2067292111243713,9.750669553200662,9.750669553200662,0.0721557678152908,0.1412088319752425,34.67447601431989,36.06103644204035,10.1853460359962,21.0,19.0,98.0,77.0,3.1511415869842034,1
492.0078122,9.962599495249115,10.040640356610725,10.691510400571817,10.74321654999307,0.0296544717014792,0.0192050741285315,0.0262722250977641,0.0515588755492538,0.0230416434775779,0.0538549925983765,0.0990699143322079,0.083213737386348,0.0853175641837556,0.0512128233487211,0.0338853921433677,0.0480155907360767,0.0276377992192507,0.094173103651599,0.0987487152817318,0.100466281030012,0.1580216867819408,0.2073555073945456,9.75266583928625,9.75266583928625,0.0721106483261343,0.1411668681296845,34.670272644693185,36.05489496722092,10.1853460359962,21.0,19.0,98.0,77.0,3.1511415869842034,1
493.0078122,9.96026539205997,10.03366006258746,10.732182831049956,10.779226215578596,0.028896384960483,0.0199891884882746,0.0261627571468606,0.0514632765393254,0.0222203311402909,0.0580555584248686,0.0914530941157083,0.0855132347899381,0.0850703768568541,0.0494809493996088,0.0331340028735193,0.0489747006971968,0.0286705436246777,0.0936078994561689,0.0931814859312486,0.1075639252609602,0.1573940215966505,0.2075767239105907,9.762073759206611,9.762073759206611,0.0720759515216944,0.141130272505511,34.66592282480837,36.04878714953192,10.14838668042071,20.0,19.0,98.0,77.0,3.1511415869842034,1
494.0078122,9.958228829876893,10.028437811618216,10.751138536923513,10.843414886386324,0.0289167779910108,0.0209436656281152,0.0263108255752382,0.0517432752431017,0.0224585672600545,0.0630311540221927,0.0832797094442026,0.0916178073024778,0.0859999791989015,0.0478197460787368,0.0323381329797427,0.0529324907793172,0.0292415454942255,0.0929122298284185,0.0840252651611916,0.1162960403131514,0.1575055253291567,0.2075646516686577,9.777064042954752,9.777064042954752,0.0720391126281755,0.1410931584140005,34.66147530008195,36.04272021890375,10.14838668042071,20.0,19.0,98.0,77.0,3.1511415869842034,1
495.0078122,9.95711968451109,10.02773638040816,10.739103001931449,10.894218021074712,0.0292034657484164,0.0217746160020422,0.0271388297789936,0.0496122454377982,0.0245092687818609,0.0666448763784198,0.0770189878327226,0.0977478031088413,0.0870390593136045,0.0442214446891167,0.0314207436909763,0.058471395319979,0.0291493865324759,0.0939966688527242,0.0794294946019408,0.1151823374363289,0.1584493151868534,0.2074418942912236,9.791096206528266,9.791096206528266,0.0720045052472742,0.1410511786873301,34.65711217374803,36.03670123694894,10.14838668042071,20.0,19.0,98.0,77.0,3.1511415869842034,1
496.0078122,9.95733885847033,10.031827718584545,10.700499636104114,10.91088065168402,0.0292402109768464,0.0219376405192226,0.027847749463286,0.0463404158782161,0.027629719621079,0.0693220558352103,0.0756622083436631,0.0988490475873757,0.0873478098012565,0.0371931775715578,0.0300681941843913,0.0629690205146732,0.0289305130374013,0.0992464425206799,0.0832725598078387,0.1029652044406575,0.16012037837308,0.2076569182094148,9.799064057394231,9.799064057394231,0.0719639190662855,0.1410149852037738,34.65279440104952,36.03071457515262,10.115866010006362,20.0,19.0,98.0,77.0,3.1511415869842034,1
497.0078122,9.958989255101894,10.03851971657554,10.65350844473075,10.89868045165175,0.0289743685250229,0.0212729533522466,0.0275261897215158,0.0442313031524333,0.0298697191380386,0.0735501531461286,0.0814055553650243,0.0944445057179721,0.087156299475026,0.0294395645394326,0.0282630168600012,0.0662260856636823,0.0287821335792553,0.1073773686604528,0.092126272676642,0.0896632293173365,0.1623902514953243,0.2087406185845766,9.799863414923609,9.799863414923609,0.0719303300114909,0.1409765318688553,34.648306339740465,36.02476488554757,10.115866010006362,20.0,19.0,98.0,77.0,3.1511415869842034,1
498.0078122,9.961215620942516,10.044649269704134,10.626083775844766,10.861325260885485,0.0287493974605477,0.020027950523999,0.0262269712816785,0.0430692222397342,0.0297808431303593,0.0797741146902545,0.0925308118997763,0.088182844506424,0.0867771298725826,0.0247130842776282,0.0265179227234306,0.0701733302145749,0.0279084020943617,0.114083004873121,0.1002621368348398,0.0826975117209631,0.1648388988041302,0.2106505972691126,9.794406889233237,9.794406889233237,0.0718949692008386,0.1409375562200921,34.64400333758125,36.01875028120553,10.115866010006362,20.0,19.0,98.0,77.0,3.1511415869842034,1
499.0078122,9.962950876360043,10.047624697336278,10.628660260261965,10.800030844388967,0.0289182444180563,0.0186335181205168,0.024746132219563,0.041316630083339,0.0277342676894144,0.0837554302217139,0.1034701406387648,0.0835075213917875,0.0858121495357981,0.0249637664546456,0.0255517434829142,0.0738594786849204,0.0258673241478414,0.1166724963014414,0.1054280922584852,0.080982570573683,0.1666124697012705,0.2126588204002289,9.78482405490219,9.78482405490219,0.0718552101522378,0.1408998872952554,34.63970214441994,36.012771216128485,10.08906502683453,20.0,19.0,98.0,77.0,3.1511415869842034,1
500.0078122,9.963457267344582,10.046068198153806,10.63751101495271,10.73492766670194,0.0295837805546812,0.0175047467532243,0.0236857091318569,0.0385219057743704,0.0252667364540538,0.0815880061351753,0.1088704985942913,0.0813310325581041,0.0844135410395356,0.0299374808315917,0.0257143260897932,0.0737702142578678,0.0236435282017677,0.1162095851171509,0.1082578633538946,0.0813366059240527,0.1670670661808325,0.2139570905155218,9.774332114910468,9.774332114910468,0.0718181210726024,0.1408623005827169,34.635459129852464,36.00700772268952,10.08906502683453,20.0,19.0,98.0,77.0,3.1511415869842034,1
501.0078122,9.96234041970071,10.040057065430434,10.62047834020312,10.695922551428623,0.0306128306649256,0.0168095587031305,0.0230258585784811,0.0357021981393886,0.0234158214184666,0.0754883638425478,0.1077549250007828,0.0811275499267597,0.0838220077713059,0.0365688322816629,0.0267960529318154,0.0691388514207938,0.0227421108618066,0.1152505849270754,0.1085871169755539,0.0831896221249846,0.1666936641796341,0.2141966758134512,9.765384557885326,9.765384557885326,0.0717740284166802,0.1408162485181811,34.631026016913,36.00117567300196,10.08906502683453,20.0,19.0,98.0,77.0,3.1511415869842034,1
502.0078122,9.960606266612162,10.03254542010564,10.578432897257354,10.698759265285949,0.0318811216683298,0.0164988725115818,0.022562914142048,0.034491691551814,0.0222610790293015,0.0709495022939219,0.1033980002553328,0.0836534244678897,0.0846709682277832,0.0404899594736844,0.028362013462484,0.062895004437655,0.0236714627668416,0.1148397146170134,0.1050254392429067,0.0872517961394163,0.1671298824656796,0.2134994057320365,9.759269098162624,9.759269098162624,0.0717347086829638,0.140768922568643,34.626681331427875,35.99547264257284,10.08906502683453,20.0,19.0,98.0,77.0,3.1511415869842034,1
503.0078122,9.960036590497005,10.028530771885908,10.54202421029576,10.742072974346366,0.033545594943693,0.0165021842778492,0.0223808313790453,0.0360434925094058,0.021715956355748,0.0714002072385012,0.0994976930367165,0.0909456912091237,0.0860097939098008,0.0396017164227637,0.0299593167579409,0.0583231578441871,0.0255196318641648,0.1138177208675862,0.0976214995461761,0.0936584702606555,0.169949245455962,0.2122463454347799,9.757922020215217,9.757922020215217,0.0716999596533064,0.1407300357024693,34.62237072320257,35.98987698145699,10.068707251406742,20.0,19.0,98.0,77.0,3.1511415869842034,1
504.0078122,9.961048301341227,10.030743102101964,10.527637850285416,10.814002852663586,0.035785062157238,0.0167540657800012,0.0227264105769442,0.039875361859851,0.0216755241961013,0.0770117832374973,0.0972222110314083,0.1026395297849509,0.0864167949280874,0.0350137762404076,0.0310597877339547,0.0573414085928372,0.0266758211547059,0.1104348613384491,0.0885432179697136,0.1021836174889358,0.175313501060343,0.2109411106247838,9.762681846050976,9.762681846050976,0.0716613217551869,0.140687534422587,34.618227952873134,35.98421904380112,10.068707251406742,20.0,19.0,98.0,77.0,3.1511415869842034,1
505.0078122,9.962944971827758,10.037810084322258,10.525218822248114,10.893117359736191,0.0381296532497932,0.0171096787887168,0.023569748398683,0.0438412764791653,0.0216352916221555,0.0845040451848943,0.0953329597471953,0.114553409954151,0.0858048671830593,0.0293812943029639,0.0312997906433204,0.0603593516309007,0.0260301363015819,0.1043070167899235,0.0801193318089197,0.1123893195701576,0.1816853711958296,0.2100525852329199,9.770458446381062,9.770458446381062,0.0716262960494859,0.140649862972809,34.6138762169527,35.97865283359572,10.054795465367931,20.0,19.0,98.0,76.0,3.1511415869842034,1
506.0078122,9.965032454777653,10.0459955955619,10.525150878972386,10.947469447853557,0.0397610150090884,0.0174058778311414,0.0245956662191909,0.0460383071847135,0.0212478289596985,0.0886771940615314,0.092170628434509,0.1238950139304911,0.085783863130627,0.0251917064205656,0.0308712528694463,0.0654138722628655,0.0238900814978075,0.0971374518651924,0.0740018707655176,0.1223852748944856,0.1867321140614875,0.2097072953172918,9.775905002119202,9.775905002119202,0.0715946804090498,0.1406116937112632,34.609634251901845,35.97312060014962,10.054795465367931,20.0,19.0,98.0,76.0,3.1511415869842034,1
507.0078122,9.966430868954696,10.051465865727891,10.530700079379274,10.947776744129609,0.040365683271363,0.0175436314067027,0.02544184846086,0.0465375137074334,0.0209312119953704,0.0869852087608669,0.0877830942114339,0.1320484460371134,0.0875685959645564,0.023666070123973,0.0302682935605233,0.0689690451351324,0.0215742506114833,0.0920276133640783,0.0711091055969577,0.1283295559803012,0.1883926435692095,0.2095121271816377,9.77843095865876,9.77843095865876,0.0715539693679364,0.1405756077868964,34.60540959639347,35.96764733717932,10.054795465367931,20.0,19.0,98.0,76.0,3.1511415869842034,1
508.0078122,9.966638295748714,10.052143547533513,10.549555576114578,10.896433669941404,0.0397965586966775,0.0173916437356397,0.0256689238347302,0.0468389920389457,0.0211487550536646,0.080621688241977,0.0832898234770844,0.1370293220877898,0.0902437565726948,0.0244609806266969,0.0297133046828834,0.0693215405671822,0.0202188431341254,0.0915985505854344,0.0709714752562821,0.1271362565328704,0.1854864441529778,0.2087745460632909,9.781561862311593,9.781561862311593,0.0715256644288802,0.1405403615425226,34.60111251250781,35.962223599063265,10.046497523865002,20.0,19.0,98.0,76.0,3.1511415869842034,1
509.0078122,9.96639477440697,10.048690251932388,10.589383721733642,10.83054418071456,0.0378111881043811,0.0168375138022742,0.0250537160382147,0.0480017784691906,0.0216053397143228,0.0719579814117488,0.0785356543215552,0.1315948519092689,0.0917161038119658,0.0262124301904264,0.0291367740001803,0.0683349884555693,0.0201989049999857,0.0952402925747733,0.0721584449463957,0.1196031430810426,0.1781603214846363,0.2069605790786654,9.78521403660346,9.78521403660346,0.0714957607430515,0.1405030949900856,34.59698394368479,35.95682458598472,10.046497523865002,20.0,19.0,98.0,76.0,3.1511415869842034,1
510.0078122,9.966761905590245,10.04406149297184,10.652365645794646,10.78507579706874,0.0351164188678551,0.0161188758039072,0.0241100945019794,0.0495401456429971,0.0217043469171864,0.0640473085871449,0.0728823444641641,0.1160729685879505,0.0908045032053987,0.0275688519747418,0.0285427715407085,0.0685971547329177,0.02127828826451,0.0985418293792131,0.0735117130815794,0.1097496972424074,0.1681912639139685,0.2040038083435056,9.785509817132938,9.785509817132938,0.0714643414040685,0.1404570856480219,34.59287396355934,35.95143329046735,10.046497523865002,20.0,19.0,98.0,76.0,3.1511415869842034,1
511.0078122,9.96783666931264,10.041316493945954,10.724390176823032,10.766642029557982,0.0331384953335848,0.0157815207107391,0.0236644930469007,0.0504002232884361,0.0213808100885295,0.0596067447803303,0.0676039780718103,0.1010172382291954,0.0883490084313951,0.0277677441367802,0.028129118228643,0.0698491992076252,0.022998820165479,0.0975772954970316,0.0748251102796588,0.1014281049901843,0.1584138064833027,0.2003349887765982,9.78176833865002,9.78176833865002,0.0714384157475221,0.1404172013254264,34.58870537389779,35.9460256362899,10.042134705196808,20.0,19.0,98.0,76.0,3.1511415869842034,1
512.0078122,9.968731095039418,10.041387844565412,10.782803563544167,10.764514681658795,0.0323360475226137,0.0161128858524401,0.0239290694118926,0.0507526960138898,0.0209794649916171,0.0580115365680279,0.065302126265571,0.0928072939598988,0.086160630359956,0.0265848286285906,0.0281528025300654,0.0695551366733602,0.0251772050622338,0.0931654371731196,0.076478581149648,0.09600945374711,0.1512791795564994,0.1967436460919428,9.776804609287852,9.776804609287852,0.0714125098281915,0.140376442647423,34.58447155462222,35.940698954322954,10.042134705196808,20.0,19.0,98.0,76.0,3.1511415869842034,1
513.0078122,9.968780160861629,10.042731486038775,10.814589896457363,10.770908815452938,0.0321334323900084,0.0168537991893043,0.0243621073470118,0.0521115809389191,0.0205569961857429,0.0566667886932795,0.0673200644185012,0.0883181182676577,0.084989985419304,0.0242639288593035,0.0288600176991026,0.0664448623361137,0.0279571407028929,0.0897154015095291,0.0782680613287573,0.092859032495985,0.1477797943170765,0.1941340612878597,9.77150387892149,9.77150387892149,0.0713911082579994,0.1403362133067578,34.580408845471005,35.93542631294277,10.042134705196808,20.0,19.0,98.0,76.0,3.1511415869842034,1
514.0078122,9.968272278588977,10.042482763777164,10.817654152859346,10.785270679994897,0.032139499265109,0.017579659640936,0.0242265396460521,0.0559181453101748,0.0199225323941741,0.0561136479663514,0.0724264313213931,0.0837190740925335,0.0843400415458206,0.0213879416072405,0.0303642237271499,0.0625251584901526,0.0311664681533471,0.0905652882495832,0.0793366490067038,0.0909786206800844,0.1474566539603948,0.193191788623406,9.764481870346916,9.764481870346916,0.0713665972699678,0.1403022446048043,34.5764269116465,35.93015957007998,10.039310566111109,20.0,18.0,98.0,76.0,3.1511415869842034,1
515.0078122,9.967407587108706,10.039168854155694,10.798269973243633,10.808850332212153,0.0324159307745807,0.0181009638552869,0.0232643714220475,0.0616784437048543,0.0191832401475096,0.0596046966280247,0.0779798726031153,0.0797069378234333,0.0839302291391288,0.0187318521777267,0.0321392141536054,0.0609756085473364,0.0339258985833053,0.0953540647084651,0.0799014692344088,0.0895454887771962,0.1488948231289908,0.1940835505162247,9.756770580250716,9.756770580250716,0.0713421343486217,0.1402656606601821,34.57241583399061,35.924851594354,10.039310566111109,20.0,18.0,98.0,76.0,3.1511415869842034,1
516.0078122,9.965999084431932,10.034749247208586,10.776203746386551,10.83833184936583,0.0328602445955594,0.0183151462359013,0.022066948306091,0.0656804154247263,0.0186632533214592,0.066789273677304,0.0819490307773907,0.07746110914025,0.084028040324605,0.0170519872813477,0.0329568765959414,0.0629676239199527,0.0352249240119613,0.1014601523514845,0.0818968068219803,0.0875527110926028,0.1501987328252367,0.1963800316101833,9.752746536246605,9.752746536246605,0.0713193163363964,0.1402282145348306,34.56838272335888,35.91963096774846,10.039310566111109,20.0,18.0,98.0,76.0,3.1511415869842034,1
517.0078122,9.964578872413508,10.032254949115694,10.783034618980706,10.865280812989928,0.0329905422037201,0.0181939423472122,0.0217131458556677,0.0635744275631558,0.0185155826330741,0.0716824334460782,0.0838741765402219,0.0750106004366644,0.0841990323596718,0.0165842897219565,0.0322373029182019,0.0676782559401027,0.0350266857997081,0.1057717985314401,0.0865014245441801,0.0844563147395315,0.1497647148900479,0.1992939177635548,9.754943559800006,9.754943559800006,0.0712946437235908,0.1401920994878485,34.564515737949634,35.91427254171826,10.035187862005223,20.0,18.0,98.0,76.0,3.1511415869842034,1
518.0078122,9.964050727336147,10.03183797818862,10.83745936927121,10.886196917001447,0.0325557506741342,0.0181000803373813,0.0228009717425379,0.0561931933834793,0.0187754030174211,0.0689139152563024,0.08403411983889,0.0709326001842502,0.0834990477129819,0.0169917643860217,0.0310151954091104,0.0735235441489965,0.0344715900399247,0.1060660359739178,0.0917371836364206,0.0822154134128093,0.1473081337115453,0.2020086941318142,9.761209265297946,9.761209265297946,0.0712667125567143,0.1401558681903834,34.560789826520555,35.90908167776801,10.035187862005223,20.0,18.0,98.0,76.0,3.1511415869842034,1
519.0078122,9.964787897495448,10.03142677497362,10.909974006700322,10.902332719843374,0.0321616263386933,0.0184130062221654,0.0247475660398696,0.0493877289049317,0.0194243250729298,0.0599206122168998,0.0822601693628361,0.0683367847928728,0.082423682113861,0.0180512752691643,0.030764705825283,0.0779695606756335,0.0346039189512363,0.1036610081616218,0.0940529573977279,0.0849041626114621,0.1442214242497273,0.203829796546866,9.76712971776957,9.76712971776957,0.0712483115203972,0.1401180315738633,34.55692239426802,35.90373890958884,10.035187862005223,20.0,18.0,98.0,76.0,3.1511415869842034,1
520.0078122,9.966529595503191,10.03073583004589,10.931202790122594,10.908851766002751,0.0329029206884285,0.0189277375899358,0.0262746710163522,0.0465951386546813,0.0201936441183527,0.0507948591586316,0.0791195488279292,0.0715981563337539,0.0823840083485058,0.0196052145711268,0.0317012227800468,0.0778754682122539,0.0349549025187324,0.102046453828479,0.0919345541651014,0.0930517336317176,0.1425888256699681,0.2041237694367261,9.768922269661724,9.768922269661724,0.0712291424939655,0.1400830288321069,34.553059493008895,35.898510908985735,10.026884214174515,20.0,18.0,98.0,76.0,3.1511415869842034,1
521.0078122,9.968011994449355,10.032030340842113,10.8614426777473,10.904247766401308,0.0349899140154228,0.0192650731273536,0.0267426879101315,0.0463392215081871,0.020638836272171,0.0460546152210978,0.0767055785110875,0.0809754535350337,0.0831744295222965,0.0208928765713406,0.0327862368375863,0.0720668388249872,0.0339933174467396,0.1006779744314549,0.0873628248861033,0.1005008899297158,0.1436163062378589,0.2024995794542877,9.766730993943062,9.766730993943062,0.0712168458402564,0.1400470208385659,34.54942215649463,35.8933589390856,10.026884214174515,20.0,18.0,98.0,76.0,3.1511415869842034,1
522.0078122,9.967979317794864,10.03699198103376,10.741980059473969,10.900786003627564,0.0372372110541681,0.0194163595756076,0.0266125792159228,0.0471113265884528,0.0205234952996386,0.0456203972587722,0.0756526236675595,0.0924432324033974,0.0833860805346665,0.0215817228430886,0.0332540475642688,0.0633486802684349,0.0314584441384586,0.0952647317279423,0.0837165929227545,0.1022187521124075,0.1468336049310387,0.1993539812082242,9.76592622217672,9.76592622217672,0.0712013623139548,0.1400058648619424,34.5458416612845,35.88828489961279,10.026884214174515,20.0,18.0,98.0,76.0,3.1511415869842034,1
523.0078122,9.967143633031004,10.043761466171194,10.65208275541386,10.9059070721137,0.0388241629387135,0.0193204924446005,0.0263915564063255,0.0505579865443668,0.0199536773802991,0.0463338076744262,0.0741161002538485,0.1014709874658264,0.0828841404816412,0.0226288306157829,0.0333577675142003,0.0563619134170174,0.0289865842306449,0.0859974897190626,0.0824249115057198,0.1014299829279882,0.1505643038686861,0.1960300075038759,9.770813855902851,9.770813855902851,0.0711856952638068,0.1399670922417621,34.54218559008197,35.88314805892692,10.011924149164626,20.0,18.0,98.0,76.0,3.1511415869842034,1
524.0078122,9.967155869828003,10.048037313903214,10.63006664465606,10.909528896872157,0.0402496481237839,0.01864516014282,0.0259781457022271,0.0580126884125171,0.0191741937328173,0.0456182146548179,0.0716430221349346,0.1052069333930306,0.0831407781439986,0.0240828130360337,0.0334135790777025,0.0536343800473022,0.0278144761446326,0.0795545883438797,0.0828577840802552,0.1027149284552493,0.1530180772721792,0.1939620872818434,9.777528835944674,9.777528835944674,0.0711761264653365,0.1399298799223978,34.5385829535803,35.87799408238183,10.011924149164626,20.0,18.0,98.0,76.0,3.1511415869842034,1
525.0078122,9.967979007311376,10.04748733332212,10.661766369914517,10.89859174843425,0.0415067766864642,0.017472031731055,0.0252333198891374,0.0651262877130518,0.0183711250694847,0.0440556666921937,0.0710319824212884,0.1023451396803462,0.0852316357513061,0.0239807010452559,0.0330863815688559,0.0549832000966574,0.0274563137111144,0.0806505834203893,0.0844422182936382,0.1037021648648518,0.1531595080661531,0.1935424837352462,9.77918748071302,9.77918748071302,0.0711603947341659,0.1398966568146556,34.53502858657263,35.87285923808277,10.011924149164626,20.0,18.0,98.0,76.0,3.1511415869842034,1
526.0078122,9.968283066306226,10.043406089008222,10.714354066146193,10.87065953673202,0.0414386363328054,0.0164232892826833,0.0243420764469769,0.0649204810762536,0.0176881032059397,0.0439922359812257,0.074522129349904,0.0941467461386439,0.0883625387178625,0.0213414232686059,0.0320978204985031,0.059121727524069,0.0268492043111511,0.0854100304900888,0.0867172507425185,0.0998759751581747,0.151043182174785,0.194025218349902,9.77662868392862,9.77662868392862,0.0711439975767083,0.1398603029424829,34.53170245073204,35.867740115706425,9.98866489977486,20.0,18.0,98.0,76.0,3.1511415869842034,1
527.0078122,9.96757456218583,10.03850587309725,10.75246609495287,10.834683632254595,0.0396705058616502,0.0159293511895812,0.0235723779420838,0.0571161402408867,0.017326373155942,0.045618527745314,0.0796089951019449,0.0852123479220529,0.0907985377962879,0.0178268764233325,0.0308985098891476,0.0638931347922076,0.0256878619726694,0.0876935100521067,0.0882777161176713,0.0924428380327179,0.1476751503475991,0.194555106522289,9.77562481789844,9.77562481789844,0.0711314596453439,0.1398280623049612,34.528278705991795,35.86279620936934,9.98866489977486,20.0,18.0,98.0,76.0,3.1511415869842034,1
528.0078122,9.966471995857376,10.035167754736117,10.753024925723665,10.801776959820003,0.0373580509553209,0.0159089386798562,0.0231036354257011,0.0487182370071086,0.0174460248155578,0.0474388446838001,0.0814361334702927,0.0799140204696234,0.0914198137077022,0.0154193579642981,0.0301464077965101,0.0663941956843631,0.0245885797089669,0.0888513527696097,0.0871263748114518,0.0870420774560891,0.1445166065657994,0.1950991777987308,9.776097751307333,9.776097751307333,0.0711204216700415,0.1397912655987551,34.52502710133933,35.857743775269434,9.98866489977486,20.0,18.0,98.0,76.0,3.1511415869842034,1
529.0078122,9.96580543717675,10.035183611703786,10.724778710819445,10.776806610886846,0.03576488300545,0.0160509206453859,0.0230050315892467,0.0455046524886105,0.0179791003223782,0.0496803210021569,0.0789786115251268,0.0788496538450658,0.0901101883355668,0.0147038772033209,0.0299313785688232,0.0647056838547557,0.0243777411268071,0.0938340435251922,0.0826231784554468,0.0881257325109223,0.1428375090582315,0.1963311818897481,9.774877440128504,9.774877440128504,0.0711137940000258,0.1397538709976902,34.52178795019092,35.85248297476374,9.956611319852144,20.0,18.0,98.0,75.0,3.1511415869842034,1
530.0078122,9.96582457744405,10.039035148388594,10.690467562947102,10.76199174620456,0.0350542886132405,0.0161234953853122,0.0231732771503922,0.0476797711502938,0.0186542595972089,0.0531921877937281,0.0761171168946372,0.0798182232694291,0.0877993980599922,0.0156402894991705,0.0297147782267547,0.0595913857796768,0.0252923530550923,0.1024400612162042,0.0769583528723077,0.0956244468608528,0.143185514299941,0.1987182159417863,9.774596977134388,9.774596977134388,0.0711044786593702,0.1397159169668042,34.51840706951774,35.847457334445416,9.956611319852144,20.0,18.0,98.0,75.0,3.1511415869842034,1
531.0078122,9.96640604546995,10.044869533935588,10.654575434196827,10.756706080203298,0.0345211654246756,0.0160197140427281,0.023149762638592,0.0527884367601367,0.0191580370037855,0.0575039493539761,0.0772608931958103,0.0798259742114798,0.0860489626030892,0.0182160448052027,0.0288945527832023,0.0542261033286,0.0267821009121195,0.111382760271158,0.0736796614421508,0.1046775364057466,0.1451444117800756,0.2017602032661803,9.777691495447025,9.777691495447025,0.0710965616896216,0.1396769969065369,34.514992284402766,35.842402414321214,9.956611319852144,20.0,18.0,98.0,75.0,3.1511415869842034,1
532.0078122,9.96758573781223,10.04897044776754,10.614565511257998,10.752425030201676,0.033668887932834,0.0156682109333104,0.0223339253791355,0.0586526345217942,0.0192800035174382,0.0618691997658479,0.0829861354715679,0.077005022412863,0.0855729265391998,0.0216588175204074,0.0275289242383657,0.0521054899401978,0.0278920634802921,0.1186501880984989,0.0741559426376577,0.1086256877429798,0.1474735957561906,0.2040694365055201,9.777419555956476,9.777419555956476,0.0710916405986419,0.1396370342754301,34.51169169272777,35.837288347871386,9.916552173129997,20.0,18.0,98.0,75.0,3.1511415869842034,1
533.0078122,9.968606847355131,10.048557855913906,10.585854034115968,10.742597904331074,0.0328671662555067,0.015150806730911,0.0209051761908643,0.0628559421562742,0.0190225563106385,0.0645893367792094,0.0890494081122495,0.072621754828018,0.0854380774724446,0.0240872536191547,0.0265317122085345,0.0545642047146226,0.0278493346565578,0.1220701417644699,0.0759548753660557,0.1040515379909097,0.1487373416428741,0.2043670405197301,9.766734271204976,9.766734271204976,0.0710862054958042,0.1395925623698041,34.50849625303841,35.83220267344812,9.916552173129997,20.0,18.0,98.0,75.0,3.1511415869842034,1
534.0078122,9.96836063608083,10.044692952373202,10.590195858165814,10.734596822529934,0.0327863606138,0.0147846898207803,0.0199314634721309,0.0634433335840297,0.0185618717739899,0.0626170773772903,0.0898742373868253,0.0697319890407439,0.084456441448078,0.0241545622755382,0.0269186377378618,0.0594215604892956,0.026737372594142,0.1193542190673227,0.076328908523758,0.0945108377816582,0.1482756218627715,0.2026005020602524,9.7495375520143,9.7495375520143,0.0710734759390829,0.1395393333026734,34.50518533508851,35.827256000059705,9.916552173129997,20.0,18.0,98.0,75.0,3.1511415869842034,1
535.0078122,9.967791649338556,10.0408999513479,10.629693025517954,10.737858454749365,0.0334379454941866,0.0148062108991562,0.0200309896457403,0.0624497736203903,0.0181127013882854,0.0563281979453317,0.0840592709930118,0.0696883353329086,0.0829409222679371,0.0224537144260125,0.0287524326527469,0.0624691857559,0.0255201597927768,0.1116511498793638,0.0758394268176694,0.0884825458758851,0.146814975092224,0.2001366223115544,9.734678359003476,9.734678359003476,0.0710637671507005,0.139489512216023,34.501773009228245,35.82213649974146,9.870482335356732,19.0,18.0,98.0,75.0,3.1511415869842034,1
536.0078122,9.968844019459976,10.038604745947335,10.682333975861251,10.74400577206442,0.0343568717313211,0.0151136824983193,0.0207228104808161,0.0646461984428257,0.0178283150680302,0.0516157179862052,0.0759140737769487,0.0716479862468327,0.0823552259967328,0.0206145751771082,0.0309592474442788,0.0616162485069614,0.0250661843867351,0.1045960556241788,0.0764767991206847,0.0909129568732002,0.145914873562594,0.1986994063589174,9.726184252065629,9.726184252065629,0.0710582554680424,0.1394423976119717,34.49856651365896,35.81703132280155,9.870482335356732,19.0,18.0,98.0,75.0,3.1511415869842034,1
537.0078122,9.971096337623075,10.036211751174584,10.719814411869727,10.738770515563038,0.0353608837499931,0.01545855512784,0.0213290650393514,0.071159267882059,0.0177639186165741,0.0536511997583641,0.0708085087141373,0.0740045454064238,0.0830475324875386,0.0197226471733607,0.0321919692938838,0.0587798510749138,0.0254841533960608,0.1039158066776766,0.0787873078043293,0.0974040527006533,0.146503390634209,0.1990029283106856,9.723784735239924,9.723784735239924,0.0710484473008726,0.1393967972242491,34.495551444646985,35.81197533273023,9.870482335356732,19.0,18.0,98.0,75.0,3.1511415869842034,1
538.0078122,9.972215826912318,10.03311857397141,10.730527460344687,10.731164362044002,0.0362073431690595,0.0157452321145261,0.0217721929673085,0.077047923751073,0.0178858563679725,0.0607331435349894,0.0705318811135614,0.0751101523516147,0.0834645463131693,0.0198763176204168,0.0318822708548742,0.0571339884742899,0.0262102329363858,0.1089355871444171,0.0821187500670419,0.099268704560126,0.1479880978552383,0.2004315517358956,9.727041070928868,9.727041070928868,0.0710442432946298,0.1393463264416329,34.49232246086109,35.8068255327072,9.82131639942114,19.0,18.0,98.0,75.0,3.1511415869842034,1
539.0078122,9.970977857724638,10.03133736847909,10.72362435671706,10.738502903109683,0.0361153618935779,0.0160645762119932,0.0223367367694529,0.0760581486477927,0.0180765684986651,0.0657896221738997,0.0732775116391658,0.0745411998523784,0.0824754737845875,0.0207224542923189,0.0306470556544257,0.0579391876503579,0.0263232525141882,0.1138915361588534,0.0856826518627543,0.0940564306545321,0.1489874504970215,0.2019705718253367,9.735039846739332,9.735039846739332,0.0710412596318098,0.1392977273546563,34.4891293863039,35.80159572799411,9.82131639942114,19.0,18.0,98.0,75.0,3.1511415869842034,1
540.0078122,9.968394171194271,10.031540987182716,10.710066794919776,10.750011880652217,0.0348026018883897,0.0164510017994724,0.0230724519223788,0.0681172702929141,0.0181972458753926,0.0643252418090324,0.0768523016741816,0.0735282327572136,0.0809028973427216,0.0216946923598336,0.029457563681776,0.0606084923198904,0.0253082460702283,0.1159694450591293,0.0888680027488546,0.0871417166076437,0.148847374057016,0.203210176138706,9.744891221074797,9.744891221074797,0.0710312216527354,0.1392501446950675,34.48572272711468,35.796521146442686,9.82131639942114,19.0,18.0,98.0,75.0,3.1511415869842034,1
541.0078122,9.96640157959941,10.031489146925956,10.695082917215649,10.749249832098627,0.0332345947244473,0.0167301773314921,0.0237572879890174,0.059891443259576,0.0182736155674695,0.0593465046262514,0.0809526779528314,0.0729803394733373,0.0800918899892178,0.0218939464675087,0.0285151600206294,0.0645287265547149,0.023777254315417,0.1165001843283007,0.0911455730466219,0.0837756331890902,0.148206951242179,0.2043853502263987,9.754306220135838,9.754306220135838,0.0710292803312805,0.1392020333012173,34.48256801158269,35.791511010252414,9.77244052891433,19.0,18.0,98.0,75.0,3.1511415869842034,1
542.0078122,9.965543362408024,10.02988270976479,10.690076163588216,10.748795705474262,0.0325656849144247,0.0167121703306703,0.0242669194587586,0.0563085611113117,0.018634238299366,0.0567208757454901,0.0855836577947388,0.072363358505636,0.0806357373433099,0.0210187252967966,0.0276519575284093,0.0689854739636679,0.0229202433806076,0.1155852653785762,0.0919894103378333,0.0859002699209355,0.148156751792241,0.2057026637289835,9.763387712575632,9.763387712575632,0.0710256321416469,0.1391517294021246,34.47947490967229,35.786448592974665,9.77244052891433,19.0,18.0,98.0,75.0,3.1511415869842034,1
543.0078122,9.964754597883225,10.02821176833393,10.703818572623907,10.761480083629552,0.033146144899636,0.0164605706130453,0.024608666249521,0.0555510393402002,0.0197235665610877,0.0586734799588339,0.089627382554362,0.0710719762932607,0.0823957402511713,0.0202231452417675,0.0271795377303524,0.0718294394724478,0.0232322036955634,0.1115539168597921,0.0910825046389155,0.0941972124053641,0.1491686102920816,0.2068333265806922,9.771205797794572,9.771205797794572,0.0710189094758116,0.1390969599739135,34.47632274485309,35.78143291481637,9.77244052891433,19.0,18.0,98.0,75.0,3.1511415869842034,1
544.0078122,9.963890342020662,10.02883364199387,10.720274291523753,10.780306840368132,0.0347083281473523,0.016277911354408,0.0248245211908962,0.0537787975082003,0.0214922128610809,0.0630366784165284,0.0926250695183455,0.0697103542286832,0.0845405538058249,0.0203710909495597,0.0273714625922196,0.0709738081656236,0.0240902695561171,0.1050327106062091,0.0892505242201893,0.1054026682695621,0.1508757775038511,0.2069843932426331,9.774221455515852,9.774221455515852,0.0710174858276488,0.139047464588975,34.473229235410926,35.776249041731454,9.77244052891433,19.0,18.0,98.0,75.0,3.1511415869842034,1
545.0078122,9.964073171613991,10.032908658806567,10.714376348119536,10.806643180098776,0.0365861335097704,0.0163757707411172,0.0250330089816664,0.0509816663210433,0.0229889589975398,0.0661033537902248,0.0947595192828102,0.0701292016765519,0.0860047892574899,0.0203175711141306,0.0280083071190944,0.0672920630383256,0.0245689540032196,0.0989483665219716,0.0884343017255439,0.1113215018497611,0.1525161054387087,0.2053771119171975,9.77040816901291,9.77040816901291,0.0710131491487497,0.138998890634687,34.470133864045366,35.77111407676617,9.7271828631922,19.0,18.0,98.0,75.0,3.1511415869842034,1
546.0078122,9.965204747340666,10.038694908095287,10.687340579589224,10.842887271785935,0.0376804642329281,0.0166966090561799,0.0252417732689413,0.049296816791356,0.0231831946697527,0.0654607515375784,0.0948151381238004,0.0743167715426254,0.0863621506103499,0.0189885531740772,0.0290006065514616,0.0639096271033056,0.0244286428043216,0.0945656863455118,0.0886498108169449,0.1076016848700521,0.1533860848438756,0.2018323043417989,9.762183791749656,9.762183791749656,0.0710119350697038,0.1389454937098407,34.46703993954119,35.76613803719614,9.7271828631922,19.0,18.0,98.0,75.0,3.1511415869842034,1
547.0078122,9.966099122501737,10.04250963716372,10.663042089206852,10.864212274757447,0.0371097648394108,0.0171126429467662,0.0251488235594143,0.0484684843439761,0.0221152844989682,0.061620094251756,0.0916216497943464,0.0819104079423328,0.0859358443684605,0.0175558340484347,0.0304694548999826,0.0625734786604106,0.0240286114862329,0.0911200640182823,0.0873962796437809,0.0982972211145233,0.153052424363776,0.1970573730457926,9.75473872957313,9.75473872957313,0.0710109435326332,0.138901711456702,34.463928418589994,35.76114728330298,9.7271828631922,19.0,18.0,98.0,75.0,3.1511415869842034,1
548.0078122,9.966384343843314,10.04252560686487,10.658565596189746,10.8498449530254,0.0352288651218457,0.0174710951670146,0.0244517115621052,0.0474141752076236,0.0206922783511338,0.0573652271582553,0.0864564223538548,0.0887159240318084,0.0853455061616696,0.0176724607052509,0.032033611502146,0.0623580057454264,0.0236175726832784,0.0886945321246659,0.0845169240191882,0.0889965823237153,0.151472044052942,0.192386371198271,9.751959180533406,9.751959180533406,0.0710031127648791,0.1388490437603779,34.460834672393325,35.756096595597384,9.688301344460289,19.0,18.0,98.0,75.0,3.1511415869842034,1
549.0078122,9.9659960312456,10.039899049432586,10.673746020124955,10.817229354873415,0.0334029453586744,0.017523868375374,0.0233448265390415,0.0470808233579511,0.0197986805667498,0.0548446258507576,0.0816936894295339,0.0897837475114796,0.0850416139617441,0.0193633093471614,0.0328584385714048,0.061791395270663,0.0232129420481716,0.0883120121665816,0.0828968507983208,0.0820108966268199,0.1491262229267218,0.1891489696652332,9.753074052089293,9.753074052089293,0.0709980777080935,0.1387934513261405,34.45781563673668,35.751055393138145,9.688301344460289,19.0,18.0,98.0,75.0,3.1511415869842034,1
550.0078122,9.964824776843187,10.036805727440148,10.699441775438048,10.793721650298105,0.0324617207576846,0.0172162609111993,0.0225744513975546,0.0480773312610987,0.01985838150184,0.0538831326578133,0.0785052091318325,0.085474046940113,0.0849627555409892,0.0215255442040156,0.0325085726590291,0.0606953202101256,0.023047062519399,0.0903099421070807,0.0828933944953592,0.0784253700933703,0.1470442935530268,0.188133796649069,9.75407447335454,9.75407447335454,0.0709972120200589,0.1387432749490287,34.45469833837258,35.7460293660658,9.688301344460289,19.0,18.0,98.0,75.0,3.1511415869842034,1
551.0078122,9.963602589455432,10.03454252843654,10.724111230865674,10.784902700694705,0.0320917272349816,0.0168441704858541,0.0228419192125488,0.0495431459848208,0.0205946274343034,0.0533043446137276,0.0766288752701623,0.082208396567365,0.0847095495191076,0.0230102416692321,0.0313548594110762,0.0598142202713944,0.0237102073482566,0.0948730923580004,0.0819119513280024,0.0793263229903295,0.1464600674796722,0.1893826670580197,9.753118117180678,9.753118117180678,0.0709908039870841,0.1386839469240885,34.45158106203802,35.741001627184545,9.657587007292756,19.0,18.0,98.0,75.0,3.1511415869842034,1
552.0078122,9.962911624586935,10.033007351977451,10.7365831384087,10.783582749180368,0.03191588443991,0.0166978845675947,0.0240819549642209,0.0517966757588004,0.0211949749223531,0.0528206683362096,0.0755885415494826,0.0853635669422701,0.0840018946400425,0.0230636791004105,0.0301724412934094,0.059580185058587,0.0256515410351296,0.1022233580554516,0.0797230487420134,0.0841310279362449,0.1480939530801371,0.1921886448327009,9.752499716772109,9.752499716772109,0.0709872907228178,0.1386268787226171,34.44835060624422,35.736031997393454,9.657587007292756,19.0,18.0,98.0,75.0,3.1511415869842034,1
553.0078122,9.962497464260304,10.032349586597553,10.73151103234615,10.789404337285706,0.0320380886971386,0.0168165118524486,0.0255430234545311,0.0551786392685326,0.0213061287358031,0.0528802988547906,0.0758385741244325,0.0936509804228286,0.0828613285091885,0.0217462086697008,0.0297126844073775,0.0597650598135705,0.0285970632636203,0.1099791490216264,0.0789684091447936,0.0897944259513602,0.1515718990346032,0.1952331314422825,9.753447900074672,9.753447900074672,0.0709854240885032,0.1385713152199301,34.4451940104508,35.7311473996178,9.63565951239558,19.0,18.0,98.0,75.0,3.1511415869842034,1
554.0078122,9.962442291663177,10.033408579598191,10.70842171031812,10.809287305195818,0.0325491519554901,0.017075851678535,0.0264623279502092,0.0570581274715138,0.0213916622274541,0.0533479008548398,0.078212350464161,0.1012753452955985,0.0817086207364962,0.0200254560636716,0.0305617751659048,0.0601454117059535,0.0314037064691377,0.1131006409648807,0.0803415098500084,0.0932333991523256,0.1556103142713665,0.1970544784870164,9.752844288963017,9.752844288963017,0.0709829677962454,0.1385146348012125,34.44205618442078,35.726290522286135,9.63565951239558,19.0,18.0,98.0,75.0,3.1511415869842034,1
555.0078122,9.962846294051682,10.03542116361038,10.66731592598775,10.841275949038256,0.0335977923079051,0.0172953761855311,0.0264544197093897,0.0553916704860516,0.0216477676754146,0.0535883528515139,0.0819989016646849,0.1043646364509058,0.0810973006763141,0.0191464145914768,0.0325683769066705,0.0607401628927944,0.0325132361164762,0.1095989302721235,0.0808511682057058,0.0938693308568051,0.1589545689569078,0.1968222809212001,9.748756100613669,9.748756100613669,0.0709785088434452,0.1384642654588162,34.438985313388635,35.72146766276314,9.63565951239558,19.0,18.0,98.0,75.0,3.1511415869842034,1
556.0078122,9.963414849356,10.036708165272149,10.618337343709392,10.866960784981831,0.0354695624559127,0.0173590458031743,0.0255849440918454,0.0528046317917982,0.0215464414803106,0.0534556632356235,0.084704373917394,0.103792908965782,0.0809306743221699,0.0199094278331304,0.0342895147514215,0.0613024962960303,0.0311487066084961,0.1035985221894432,0.0782314816856663,0.092243066432244,0.1612990933077175,0.1948859417935692,9.74433266977742,9.74433266977742,0.0709764740445025,0.1384159073890598,34.435847284223,35.71664000737614,9.621993116711607,19.0,18.0,98.0,75.0,3.1511415869842034,1
557.0078122,9.96434699824914,10.037205168383965,10.585162201551142,10.868791275131372,0.0378578079342728,0.0173673033625273,0.0243465436628456,0.0528160535722194,0.0207410972976613,0.0537571279488311,0.0848668077260331,0.1021248589598396,0.080668905630859,0.0219031852914374,0.0341484332285833,0.0616723587373068,0.0281925980500916,0.1003497131748507,0.0744041944291577,0.0884999047244947,0.163438100303563,0.1925944247223026,9.744296896500506,9.744296896500506,0.0709708866347962,0.1383654655220525,34.43291135018696,35.71179350000471,9.621993116711607,19.0,18.0,98.0,75.0,3.1511415869842034,1
558.0078122,9.9657096422438,10.03719119650397,10.585444363144063,10.854976814484814,0.0398208615201916,0.0176383600446193,0.0234844895031005,0.0554690557000133,0.019669376490035,0.0560864790623471,0.0842304004265473,0.1017456683832883,0.0804357783071942,0.0230262538587309,0.0322794395282748,0.062911724061565,0.0253717305592542,0.1012022091007876,0.072242070607941,0.0839705762144603,0.1665241653431358,0.1915637730119565,9.75107456043954,9.75107456043954,0.0709704480234314,0.1383190719653406,34.42973299927254,35.70709188875816,9.621993116711607,19.0,18.0,98.0,75.0,3.1511415869842034,1
